0 0.5014 0.4986 0.0000 
1 0.3203 0.6797 0.0000 
2 0.1999 0.8001 0.0000 
3 0.1337 0.8663 0.0000 
4 0.0943 0.9057 0.0000 
5 0.0734 0.9266 0.0000 
6 0.0646 0.9354 0.0000 
7 0.0603 0.9397 0.0000 
8 0.0618 0.9382 0.0000 
9 0.0644 0.9356 0.0000 
10 0.0666 0.9334 0.0000 
11 0.0697 0.9303 0.0000 
12 0.0730 0.9270 0.0000 
13 0.0772 0.9228 0.0000 
14 0.0815 0.9185 0.0000 
15 0.0820 0.9180 0.0000 
16 0.0865 0.9135 0.0000 
17 0.0922 0.9078 0.0000 
18 0.0964 0.9036 0.0000 
19 0.1021 0.8979 0.0000 
20 0.1075 0.8925 0.0000 
21 0.1118 0.8882 0.0000 
22 0.1150 0.8850 0.0000 
23 0.1221 0.8779 0.0000 
24 0.1251 0.8749 0.0000 
25 0.1288 0.8712 0.0000 
26 0.1314 0.8686 0.0000 
27 0.1381 0.8619 0.0000 
28 0.1428 0.8572 0.0000 
29 0.1463 0.8537 0.0000 
30 0.1490 0.8510 0.0000 
31 0.1538 0.8462 0.0000 
32 0.1582 0.8418 0.0000 
33 0.1634 0.8366 0.0000 
34 0.1697 0.8303 0.0000 
35 0.1699 0.8301 0.0000 
36 0.1729 0.8271 0.0000 
37 0.1746 0.8254 0.0000 
38 0.1776 0.8224 0.0000 
39 0.1812 0.8188 0.0000 
40 0.1872 0.8128 0.0000 
41 0.1872 0.8128 0.0000 
42 0.1956 0.8044 0.0000 
43 0.1962 0.8038 0.0000 
44 0.1993 0.8007 0.0000 
45 0.2034 0.7966 0.0000 
46 0.2063 0.7937 0.0000 
47 0.2120 0.7880 0.0000 
48 0.2161 0.7839 0.0000 
49 0.2188 0.7812 0.0000 
50 0.2261 0.7739 0.0000 
51 0.2316 0.7684 0.0000 
52 0.2372 0.7628 0.0000 
53 0.2398 0.7602 0.0000 
54 0.2425 0.7575 0.0000 
55 0.2447 0.7553 0.0000 
56 0.2513 0.7487 0.0000 
57 0.2546 0.7454 0.0000 
58 0.2546 0.7454 0.0000 
59 0.2601 0.7399 0.0000 
60 0.2616 0.7384 0.0000 
61 0.2653 0.7347 0.0000 
62 0.2710 0.7290 0.0000 
63 0.2767 0.7233 0.0000 
64 0.2807 0.7193 0.0000 
65 0.2847 0.7153 0.0000 
66 0.2857 0.7143 0.0000 
67 0.2918 0.7082 0.0000 
68 0.2968 0.7032 0.0000 
69 0.2994 0.7006 0.0000 
70 0.2987 0.7013 0.0000 
71 0.3024 0.6976 0.0000 
72 0.3057 0.6943 0.0000 
73 0.3097 0.6903 0.0000 
74 0.3136 0.6864 0.0000 
75 0.3155 0.6845 0.0000 
76 0.3196 0.6804 0.0000 
77 0.3225 0.6775 0.0000 
78 0.3283 0.6717 0.0000 
79 0.3344 0.6656 0.0000 
80 0.3414 0.6586 0.0000 
81 0.3420 0.6580 0.0000 
82 0.3447 0.6553 0.0000 
83 0.3503 0.6497 0.0000 
84 0.3533 0.6467 0.0000 
85 0.3568 0.6432 0.0000 
86 0.3610 0.6390 0.0000 
87 0.3648 0.6352 0.0000 
88 0.3675 0.6325 0.0000 
89 0.3764 0.6236 0.0000 
90 0.3793 0.6207 0.0000 
91 0.3829 0.6171 0.0000 
92 0.3868 0.6132 0.0000 
93 0.3920 0.6080 0.0000 
94 0.3984 0.6016 0.0000 
95 0.4036 0.5964 0.0000 
96 0.4056 0.5944 0.0000 
97 0.4076 0.5924 0.0000 
98 0.4084 0.5916 0.0000 
99 0.4061 0.5939 0.0000 
100 0.4059 0.5941 0.0000 
101 0.4081 0.5919 0.0000 
102 0.4104 0.5896 0.0000 
103 0.4122 0.5878 0.0000 
104 0.4123 0.5877 0.0000 
105 0.4163 0.5837 0.0000 
106 0.4175 0.5825 0.0000 
107 0.4217 0.5783 0.0000 
108 0.4258 0.5742 0.0000 
109 0.4260 0.5740 0.0000 
110 0.4355 0.5645 0.0000 
111 0.4349 0.5651 0.0000 
112 0.4382 0.5618 0.0000 
113 0.4402 0.5598 0.0000 
114 0.4457 0.5543 0.0000 
115 0.4486 0.5514 0.0000 
116 0.4494 0.5506 0.0000 
117 0.4477 0.5523 0.0000 
118 0.4497 0.5503 0.0000 
119 0.4539 0.5461 0.0000 
120 0.4565 0.5435 0.0000 
121 0.4558 0.5442 0.0000 
122 0.4594 0.5406 0.0000 
123 0.4602 0.5398 0.0000 
124 0.4616 0.5384 0.0000 
125 0.4648 0.5352 0.0000 
126 0.4624 0.5376 0.0000 
127 0.4632 0.5368 0.0000 
128 0.4655 0.5345 0.0000 
129 0.4627 0.5373 0.0000 
130 0.4618 0.5382 0.0000 
131 0.4635 0.5365 0.0000 
132 0.4662 0.5338 0.0000 
133 0.4675 0.5325 0.0000 
134 0.4687 0.5313 0.0000 
135 0.4717 0.5283 0.0000 
136 0.4707 0.5293 0.0000 
137 0.4720 0.5280 0.0000 
138 0.4767 0.5233 0.0000 
139 0.4844 0.5156 0.0000 
140 0.4842 0.5158 0.0000 
141 0.4927 0.5073 0.0000 
142 0.4978 0.5022 0.0000 
143 0.5019 0.4981 0.0000 
144 0.5031 0.4969 0.0000 
145 0.4995 0.5005 0.0000 
146 0.4995 0.5005 0.0000 
147 0.5060 0.4940 0.0000 
148 0.5069 0.4931 0.0000 
149 0.5046 0.4954 0.0000 
150 0.5076 0.4924 0.0000 
151 0.5043 0.4957 0.0000 
152 0.5119 0.4881 0.0000 
153 0.5126 0.4874 0.0000 
154 0.5167 0.4833 0.0000 
155 0.5218 0.4782 0.0000 
156 0.5242 0.4758 0.0000 
157 0.5316 0.4684 0.0000 
158 0.5356 0.4644 0.0000 
159 0.5337 0.4663 0.0000 
160 0.5359 0.4641 0.0000 
161 0.5368 0.4632 0.0000 
162 0.5376 0.4624 0.0000 
163 0.5355 0.4645 0.0000 
164 0.5332 0.4668 0.0000 
165 0.5356 0.4644 0.0000 
166 0.5383 0.4617 0.0000 
167 0.5406 0.4594 0.0000 
168 0.5409 0.4591 0.0000 
169 0.5442 0.4558 0.0000 
170 0.5451 0.4549 0.0000 
171 0.5496 0.4504 0.0000 
172 0.5499 0.4501 0.0000 
173 0.5492 0.4508 0.0000 
174 0.5502 0.4498 0.0000 
175 0.5556 0.4444 0.0000 
176 0.5537 0.4463 0.0000 
177 0.5546 0.4454 0.0000 
178 0.5473 0.4527 0.0000 
179 0.5450 0.4550 0.0000 
180 0.5472 0.4528 0.0000 
181 0.5526 0.4474 0.0000 
182 0.5523 0.4477 0.0000 
183 0.5557 0.4443 0.0000 
184 0.5569 0.4431 0.0000 
185 0.5575 0.4425 0.0000 
186 0.5506 0.4494 0.0000 
187 0.5445 0.4555 0.0000 
188 0.5448 0.4552 0.0000 
189 0.5431 0.4569 0.0000 
190 0.5440 0.4560 0.0000 
191 0.5459 0.4541 0.0000 
192 0.5444 0.4556 0.0000 
193 0.5398 0.4602 0.0000 
194 0.5421 0.4579 0.0000 
195 0.5420 0.4580 0.0000 
196 0.5437 0.4563 0.0000 
197 0.5382 0.4618 0.0000 
198 0.5419 0.4581 0.0000 
199 0.5326 0.4674 0.0000 
200 0.5318 0.4682 0.0000 
201 0.5326 0.4674 0.0000 
202 0.5332 0.4668 0.0000 
203 0.5354 0.4646 0.0000 
204 0.5405 0.4595 0.0000 
205 0.5410 0.4590 0.0000 
206 0.5439 0.4561 0.0000 
207 0.5402 0.4598 0.0000 
208 0.5383 0.4617 0.0000 
209 0.5354 0.4646 0.0000 
210 0.5322 0.4678 0.0000 
211 0.5291 0.4709 0.0000 
212 0.5318 0.4682 0.0000 
213 0.5320 0.4680 0.0000 
214 0.5258 0.4742 0.0000 
215 0.5282 0.4718 0.0000 
216 0.5283 0.4717 0.0000 
217 0.5271 0.4729 0.0000 
218 0.5245 0.4755 0.0000 
219 0.5253 0.4747 0.0000 
220 0.5245 0.4755 0.0000 
221 0.5282 0.4718 0.0000 
222 0.5278 0.4722 0.0000 
223 0.5275 0.4725 0.0000 
224 0.5331 0.4669 0.0000 
225 0.5357 0.4643 0.0000 
226 0.5361 0.4639 0.0000 
227 0.5327 0.4673 0.0000 
228 0.5339 0.4661 0.0000 
229 0.5352 0.4648 0.0000 
230 0.5349 0.4651 0.0000 
231 0.5358 0.4642 0.0000 
232 0.5347 0.4653 0.0000 
233 0.5320 0.4680 0.0000 
234 0.5328 0.4672 0.0000 
235 0.5350 0.4650 0.0000 
236 0.5324 0.4676 0.0000 
237 0.5383 0.4617 0.0000 
238 0.5381 0.4619 0.0000 
239 0.5355 0.4645 0.0000 
240 0.5353 0.4647 0.0000 
241 0.5409 0.4591 0.0000 
242 0.5391 0.4609 0.0000 
243 0.5441 0.4559 0.0000 
244 0.5465 0.4535 0.0000 
245 0.5485 0.4515 0.0000 
246 0.5479 0.4521 0.0000 
247 0.5439 0.4561 0.0000 
248 0.5453 0.4547 0.0000 
249 0.5467 0.4533 0.0000 
250 0.5464 0.4536 0.0000 
251 0.5497 0.4503 0.0000 
252 0.5522 0.4478 0.0000 
253 0.5494 0.4506 0.0000 
254 0.5500 0.4500 0.0000 
255 0.5515 0.4485 0.0000 
256 0.5490 0.4510 0.0000 
257 0.5520 0.4480 0.0000 
258 0.5516 0.4484 0.0000 
259 0.5550 0.4450 0.0000 
260 0.5583 0.4417 0.0000 
261 0.5605 0.4395 0.0000 
262 0.5623 0.4377 0.0000 
263 0.5649 0.4351 0.0000 
264 0.5641 0.4359 0.0000 
265 0.5655 0.4345 0.0000 
266 0.5644 0.4356 0.0000 
267 0.5694 0.4306 0.0000 
268 0.5660 0.4340 0.0000 
269 0.5648 0.4352 0.0000 
270 0.5642 0.4358 0.0000 
271 0.5622 0.4378 0.0000 
272 0.5566 0.4434 0.0000 
273 0.5530 0.4470 0.0000 
274 0.5572 0.4428 0.0000 
275 0.5573 0.4427 0.0000 
276 0.5558 0.4442 0.0000 
277 0.5569 0.4431 0.0000 
278 0.5550 0.4450 0.0000 
279 0.5515 0.4485 0.0000 
280 0.5513 0.4487 0.0000 
281 0.5542 0.4458 0.0000 
282 0.5499 0.4501 0.0000 
283 0.5486 0.4514 0.0000 
284 0.5497 0.4503 0.0000 
285 0.5478 0.4522 0.0000 
286 0.5476 0.4524 0.0000 
287 0.5498 0.4502 0.0000 
288 0.5516 0.4484 0.0000 
289 0.5519 0.4481 0.0000 
290 0.5510 0.4490 0.0000 
291 0.5541 0.4459 0.0000 
292 0.5586 0.4414 0.0000 
293 0.5577 0.4423 0.0000 
294 0.5597 0.4403 0.0000 
295 0.5571 0.4429 0.0000 
296 0.5544 0.4456 0.0000 
297 0.5572 0.4428 0.0000 
298 0.5582 0.4418 0.0000 
299 0.5519 0.4481 0.0000 
300 0.5552 0.4448 0.0000 
301 0.5489 0.4511 0.0000 
302 0.5467 0.4533 0.0000 
303 0.5423 0.4577 0.0000 
304 0.5413 0.4587 0.0000 
305 0.5425 0.4575 0.0000 
306 0.5441 0.4559 0.0000 
307 0.5471 0.4529 0.0000 
308 0.5492 0.4508 0.0000 
309 0.5456 0.4544 0.0000 
310 0.5505 0.4495 0.0000 
311 0.5554 0.4446 0.0000 
312 0.5540 0.4460 0.0000 
313 0.5566 0.4434 0.0000 
314 0.5578 0.4422 0.0000 
315 0.5605 0.4395 0.0000 
316 0.5640 0.4360 0.0000 
317 0.5614 0.4386 0.0000 
318 0.5578 0.4422 0.0000 
319 0.5525 0.4475 0.0000 
320 0.5510 0.4490 0.0000 
321 0.5531 0.4469 0.0000 
322 0.5566 0.4434 0.0000 
323 0.5519 0.4481 0.0000 
324 0.5525 0.4475 0.0000 
325 0.5515 0.4485 0.0000 
326 0.5554 0.4446 0.0000 
327 0.5521 0.4479 0.0000 
328 0.5531 0.4469 0.0000 
329 0.5518 0.4482 0.0000 
330 0.5585 0.4415 0.0000 
331 0.5564 0.4436 0.0000 
332 0.5547 0.4453 0.0000 
333 0.5519 0.4481 0.0000 
334 0.5507 0.4493 0.0000 
335 0.5464 0.4536 0.0000 
336 0.5466 0.4534 0.0000 
337 0.5434 0.4566 0.0000 
338 0.5427 0.4573 0.0000 
339 0.5405 0.4595 0.0000 
340 0.5448 0.4552 0.0000 
341 0.5498 0.4502 0.0000 
342 0.5544 0.4456 0.0000 
343 0.5510 0.4490 0.0000 
344 0.5527 0.4473 0.0000 
345 0.5510 0.4490 0.0000 
346 0.5493 0.4507 0.0000 
347 0.5476 0.4524 0.0000 
348 0.5458 0.4542 0.0000 
349 0.5438 0.4562 0.0000 
350 0.5411 0.4589 0.0000 
351 0.5456 0.4544 0.0000 
352 0.5452 0.4548 0.0000 
353 0.5438 0.4562 0.0000 
354 0.5418 0.4582 0.0000 
355 0.5445 0.4555 0.0000 
356 0.5445 0.4555 0.0000 
357 0.5438 0.4562 0.0000 
358 0.5407 0.4593 0.0000 
359 0.5430 0.4570 0.0000 
360 0.5429 0.4571 0.0000 
361 0.5433 0.4567 0.0000 
362 0.5493 0.4507 0.0000 
363 0.5504 0.4496 0.0000 
364 0.5475 0.4525 0.0000 
365 0.5465 0.4535 0.0000 
366 0.5417 0.4583 0.0000 
367 0.5444 0.4556 0.0000 
368 0.5438 0.4562 0.0000 
369 0.5410 0.4590 0.0000 
370 0.5421 0.4579 0.0000 
371 0.5396 0.4604 0.0000 
372 0.5347 0.4653 0.0000 
373 0.5368 0.4632 0.0000 
374 0.5375 0.4625 0.0000 
375 0.5384 0.4616 0.0000 
376 0.5366 0.4634 0.0000 
377 0.5326 0.4674 0.0000 
378 0.5365 0.4635 0.0000 
379 0.5326 0.4674 0.0000 
380 0.5328 0.4672 0.0000 
381 0.5318 0.4682 0.0000 
382 0.5255 0.4745 0.0000 
383 0.5291 0.4709 0.0000 
384 0.5305 0.4695 0.0000 
385 0.5338 0.4662 0.0000 
386 0.5310 0.4690 0.0000 
387 0.5283 0.4717 0.0000 
388 0.5314 0.4686 0.0000 
389 0.5324 0.4676 0.0000 
390 0.5288 0.4712 0.0000 
391 0.5305 0.4695 0.0000 
392 0.5284 0.4716 0.0000 
393 0.5276 0.4724 0.0000 
394 0.5246 0.4754 0.0000 
395 0.5259 0.4741 0.0000 
396 0.5277 0.4723 0.0000 
397 0.5248 0.4752 0.0000 
398 0.5264 0.4736 0.0000 
399 0.5260 0.4740 0.0000 
400 0.5242 0.4758 0.0000 
401 0.5243 0.4757 0.0000 
402 0.5219 0.4781 0.0000 
403 0.5234 0.4766 0.0000 
404 0.5215 0.4785 0.0000 
405 0.5248 0.4752 0.0000 
406 0.5228 0.4772 0.0000 
407 0.5230 0.4770 0.0000 
408 0.5211 0.4789 0.0000 
409 0.5259 0.4741 0.0000 
410 0.5289 0.4711 0.0000 
411 0.5328 0.4672 0.0000 
412 0.5319 0.4681 0.0000 
413 0.5344 0.4656 0.0000 
414 0.5324 0.4676 0.0000 
415 0.5358 0.4642 0.0000 
416 0.5370 0.4630 0.0000 
417 0.5369 0.4631 0.0000 
418 0.5347 0.4653 0.0000 
419 0.5392 0.4608 0.0000 
420 0.5389 0.4611 0.0000 
421 0.5418 0.4582 0.0000 
422 0.5459 0.4541 0.0000 
423 0.5504 0.4496 0.0000 
424 0.5453 0.4547 0.0000 
425 0.5445 0.4555 0.0000 
426 0.5478 0.4522 0.0000 
427 0.5463 0.4537 0.0000 
428 0.5415 0.4585 0.0000 
429 0.5486 0.4514 0.0000 
430 0.5558 0.4442 0.0000 
431 0.5562 0.4438 0.0000 
432 0.5554 0.4446 0.0000 
433 0.5544 0.4456 0.0000 
434 0.5544 0.4456 0.0000 
435 0.5555 0.4445 0.0000 
436 0.5576 0.4424 0.0000 
437 0.5584 0.4416 0.0000 
438 0.5497 0.4503 0.0000 
439 0.5546 0.4454 0.0000 
440 0.5573 0.4427 0.0000 
441 0.5553 0.4447 0.0000 
442 0.5501 0.4499 0.0000 
443 0.5460 0.4540 0.0000 
444 0.5438 0.4562 0.0000 
445 0.5427 0.4573 0.0000 
446 0.5391 0.4609 0.0000 
447 0.5397 0.4603 0.0000 
448 0.5372 0.4628 0.0000 
449 0.5388 0.4612 0.0000 
450 0.5389 0.4611 0.0000 
451 0.5395 0.4605 0.0000 
452 0.5390 0.4610 0.0000 
453 0.5394 0.4606 0.0000 
454 0.5394 0.4606 0.0000 
455 0.5421 0.4579 0.0000 
456 0.5424 0.4576 0.0000 
457 0.5423 0.4577 0.0000 
458 0.5458 0.4542 0.0000 
459 0.5373 0.4627 0.0000 
460 0.5342 0.4658 0.0000 
461 0.5342 0.4658 0.0000 
462 0.5308 0.4692 0.0000 
463 0.5377 0.4623 0.0000 
464 0.5363 0.4637 0.0000 
465 0.5353 0.4647 0.0000 
466 0.5364 0.4636 0.0000 
467 0.5367 0.4633 0.0000 
468 0.5359 0.4641 0.0000 
469 0.5311 0.4689 0.0000 
470 0.5270 0.4730 0.0000 
471 0.5302 0.4698 0.0000 
472 0.5293 0.4707 0.0000 
473 0.5303 0.4697 0.0000 
474 0.5301 0.4699 0.0000 
475 0.5289 0.4711 0.0000 
476 0.5265 0.4735 0.0000 
477 0.5257 0.4743 0.0000 
478 0.5294 0.4706 0.0000 
479 0.5318 0.4682 0.0000 
480 0.5256 0.4744 0.0000 
481 0.5276 0.4724 0.0000 
482 0.5238 0.4762 0.0000 
483 0.5257 0.4743 0.0000 
484 0.5311 0.4689 0.0000 
485 0.5320 0.4680 0.0000 
486 0.5313 0.4687 0.0000 
487 0.5350 0.4650 0.0000 
488 0.5335 0.4665 0.0000 
489 0.5349 0.4651 0.0000 
490 0.5318 0.4682 0.0000 
491 0.5324 0.4676 0.0000 
492 0.5384 0.4616 0.0000 
493 0.5367 0.4633 0.0000 
494 0.5409 0.4591 0.0000 
495 0.5338 0.4662 0.0000 
496 0.5334 0.4666 0.0000 
497 0.5335 0.4665 0.0000 
498 0.5337 0.4663 0.0000 
499 0.5319 0.4681 0.0000 
