0 0.5008 0.4992 0.0000 
1 0.3121 0.6879 0.0000 
2 0.1862 0.8138 0.0000 
3 0.1082 0.8918 0.0000 
4 0.0673 0.9327 0.0000 
5 0.0467 0.9533 0.0000 
6 0.0341 0.9659 0.0000 
7 0.0279 0.9721 0.0000 
8 0.0255 0.9745 0.0000 
9 0.0225 0.9775 0.0000 
10 0.0220 0.9780 0.0000 
11 0.0207 0.9793 0.0000 
12 0.0206 0.9794 0.0000 
13 0.0197 0.9803 0.0000 
14 0.0203 0.9797 0.0000 
15 0.0216 0.9784 0.0000 
16 0.0212 0.9788 0.0000 
17 0.0207 0.9793 0.0000 
18 0.0217 0.9783 0.0000 
19 0.0214 0.9786 0.0000 
20 0.0218 0.9782 0.0000 
21 0.0216 0.9784 0.0000 
22 0.0203 0.9797 0.0000 
23 0.0213 0.9787 0.0000 
24 0.0213 0.9787 0.0000 
25 0.0211 0.9789 0.0000 
26 0.0207 0.9793 0.0000 
27 0.0207 0.9793 0.0000 
28 0.0199 0.9801 0.0000 
29 0.0210 0.9790 0.0000 
30 0.0217 0.9783 0.0000 
31 0.0224 0.9776 0.0000 
32 0.0229 0.9771 0.0000 
33 0.0237 0.9763 0.0000 
34 0.0253 0.9747 0.0000 
35 0.0250 0.9750 0.0000 
36 0.0262 0.9738 0.0000 
37 0.0261 0.9739 0.0000 
38 0.0273 0.9727 0.0000 
39 0.0269 0.9731 0.0000 
40 0.0295 0.9705 0.0000 
41 0.0287 0.9713 0.0000 
42 0.0298 0.9702 0.0000 
43 0.0298 0.9702 0.0000 
44 0.0300 0.9700 0.0000 
45 0.0293 0.9707 0.0000 
46 0.0289 0.9711 0.0000 
47 0.0288 0.9712 0.0000 
48 0.0287 0.9713 0.0000 
49 0.0276 0.9724 0.0000 
50 0.0282 0.9718 0.0000 
51 0.0280 0.9720 0.0000 
52 0.0275 0.9725 0.0000 
53 0.0281 0.9719 0.0000 
54 0.0270 0.9730 0.0000 
55 0.0264 0.9736 0.0000 
56 0.0263 0.9737 0.0000 
57 0.0247 0.9753 0.0000 
58 0.0250 0.9750 0.0000 
59 0.0249 0.9751 0.0000 
60 0.0258 0.9742 0.0000 
61 0.0266 0.9734 0.0000 
62 0.0281 0.9719 0.0000 
63 0.0283 0.9717 0.0000 
64 0.0294 0.9706 0.0000 
65 0.0301 0.9699 0.0000 
66 0.0299 0.9701 0.0000 
67 0.0300 0.9700 0.0000 
68 0.0314 0.9686 0.0000 
69 0.0325 0.9675 0.0000 
70 0.0338 0.9662 0.0000 
71 0.0332 0.9668 0.0000 
72 0.0345 0.9655 0.0000 
73 0.0349 0.9651 0.0000 
74 0.0358 0.9642 0.0000 
75 0.0366 0.9634 0.0000 
76 0.0367 0.9633 0.0000 
77 0.0372 0.9628 0.0000 
78 0.0370 0.9630 0.0000 
79 0.0375 0.9625 0.0000 
80 0.0387 0.9613 0.0000 
81 0.0389 0.9611 0.0000 
82 0.0403 0.9597 0.0000 
83 0.0406 0.9594 0.0000 
84 0.0411 0.9589 0.0000 
85 0.0412 0.9588 0.0000 
86 0.0404 0.9596 0.0000 
87 0.0419 0.9581 0.0000 
88 0.0412 0.9588 0.0000 
89 0.0411 0.9589 0.0000 
90 0.0403 0.9597 0.0000 
91 0.0409 0.9591 0.0000 
92 0.0401 0.9599 0.0000 
93 0.0390 0.9610 0.0000 
94 0.0377 0.9623 0.0000 
95 0.0381 0.9619 0.0000 
96 0.0391 0.9609 0.0000 
97 0.0398 0.9602 0.0000 
98 0.0397 0.9603 0.0000 
99 0.0402 0.9598 0.0000 
100 0.0403 0.9597 0.0000 
101 0.0400 0.9600 0.0000 
102 0.0387 0.9613 0.0000 
103 0.0392 0.9608 0.0000 
104 0.0389 0.9611 0.0000 
105 0.0403 0.9597 0.0000 
106 0.0406 0.9594 0.0000 
107 0.0398 0.9602 0.0000 
108 0.0407 0.9593 0.0000 
109 0.0404 0.9596 0.0000 
110 0.0406 0.9594 0.0000 
111 0.0420 0.9580 0.0000 
112 0.0423 0.9577 0.0000 
113 0.0422 0.9578 0.0000 
114 0.0424 0.9576 0.0000 
115 0.0413 0.9587 0.0000 
116 0.0431 0.9569 0.0000 
117 0.0426 0.9574 0.0000 
118 0.0429 0.9571 0.0000 
119 0.0427 0.9573 0.0000 
120 0.0438 0.9562 0.0000 
121 0.0457 0.9543 0.0000 
122 0.0463 0.9537 0.0000 
123 0.0454 0.9546 0.0000 
124 0.0443 0.9557 0.0000 
125 0.0432 0.9568 0.0000 
126 0.0449 0.9551 0.0000 
127 0.0443 0.9557 0.0000 
128 0.0439 0.9561 0.0000 
129 0.0429 0.9571 0.0000 
130 0.0449 0.9551 0.0000 
131 0.0460 0.9540 0.0000 
132 0.0479 0.9521 0.0000 
133 0.0495 0.9505 0.0000 
134 0.0495 0.9505 0.0000 
135 0.0487 0.9513 0.0000 
136 0.0473 0.9527 0.0000 
137 0.0479 0.9521 0.0000 
138 0.0474 0.9526 0.0000 
139 0.0477 0.9523 0.0000 
140 0.0495 0.9505 0.0000 
141 0.0504 0.9496 0.0000 
142 0.0502 0.9498 0.0000 
143 0.0491 0.9509 0.0000 
144 0.0488 0.9512 0.0000 
145 0.0489 0.9511 0.0000 
146 0.0501 0.9499 0.0000 
147 0.0481 0.9519 0.0000 
148 0.0474 0.9526 0.0000 
149 0.0483 0.9517 0.0000 
150 0.0483 0.9517 0.0000 
151 0.0487 0.9513 0.0000 
152 0.0492 0.9508 0.0000 
153 0.0491 0.9509 0.0000 
154 0.0496 0.9504 0.0000 
155 0.0508 0.9492 0.0000 
156 0.0513 0.9487 0.0000 
157 0.0540 0.9460 0.0000 
158 0.0545 0.9455 0.0000 
159 0.0559 0.9441 0.0000 
160 0.0550 0.9450 0.0000 
161 0.0547 0.9453 0.0000 
162 0.0552 0.9448 0.0000 
163 0.0540 0.9460 0.0000 
164 0.0547 0.9453 0.0000 
165 0.0547 0.9453 0.0000 
166 0.0537 0.9463 0.0000 
167 0.0556 0.9444 0.0000 
168 0.0572 0.9428 0.0000 
169 0.0578 0.9422 0.0000 
170 0.0579 0.9421 0.0000 
171 0.0580 0.9420 0.0000 
172 0.0584 0.9416 0.0000 
173 0.0577 0.9423 0.0000 
174 0.0575 0.9425 0.0000 
175 0.0569 0.9431 0.0000 
176 0.0554 0.9446 0.0000 
177 0.0550 0.9450 0.0000 
178 0.0559 0.9441 0.0000 
179 0.0561 0.9439 0.0000 
180 0.0556 0.9444 0.0000 
181 0.0570 0.9430 0.0000 
182 0.0564 0.9436 0.0000 
183 0.0593 0.9407 0.0000 
184 0.0588 0.9412 0.0000 
185 0.0594 0.9406 0.0000 
186 0.0598 0.9402 0.0000 
187 0.0612 0.9388 0.0000 
188 0.0622 0.9378 0.0000 
189 0.0631 0.9369 0.0000 
190 0.0628 0.9372 0.0000 
191 0.0650 0.9350 0.0000 
192 0.0663 0.9337 0.0000 
193 0.0675 0.9325 0.0000 
194 0.0666 0.9334 0.0000 
195 0.0678 0.9322 0.0000 
196 0.0686 0.9314 0.0000 
197 0.0685 0.9315 0.0000 
198 0.0692 0.9308 0.0000 
199 0.0691 0.9309 0.0000 
200 0.0643 0.9357 0.0000 
201 0.0614 0.9386 0.0000 
202 0.0621 0.9379 0.0000 
203 0.0596 0.9404 0.0000 
204 0.0612 0.9388 0.0000 
205 0.0628 0.9372 0.0000 
206 0.0645 0.9355 0.0000 
207 0.0658 0.9342 0.0000 
208 0.0679 0.9321 0.0000 
209 0.0674 0.9326 0.0000 
210 0.0661 0.9339 0.0000 
211 0.0662 0.9338 0.0000 
212 0.0668 0.9332 0.0000 
213 0.0682 0.9318 0.0000 
214 0.0669 0.9331 0.0000 
215 0.0670 0.9330 0.0000 
216 0.0657 0.9343 0.0000 
217 0.0648 0.9352 0.0000 
218 0.0644 0.9356 0.0000 
219 0.0644 0.9356 0.0000 
220 0.0644 0.9356 0.0000 
221 0.0631 0.9369 0.0000 
222 0.0644 0.9356 0.0000 
223 0.0660 0.9340 0.0000 
224 0.0653 0.9347 0.0000 
225 0.0642 0.9358 0.0000 
226 0.0638 0.9362 0.0000 
227 0.0650 0.9350 0.0000 
228 0.0641 0.9359 0.0000 
229 0.0624 0.9376 0.0000 
230 0.0629 0.9371 0.0000 
231 0.0635 0.9365 0.0000 
232 0.0615 0.9385 0.0000 
233 0.0627 0.9373 0.0000 
234 0.0632 0.9368 0.0000 
235 0.0617 0.9383 0.0000 
236 0.0632 0.9368 0.0000 
237 0.0658 0.9342 0.0000 
238 0.0675 0.9325 0.0000 
239 0.0654 0.9346 0.0000 
240 0.0657 0.9343 0.0000 
241 0.0648 0.9352 0.0000 
242 0.0650 0.9350 0.0000 
243 0.0635 0.9365 0.0000 
244 0.0641 0.9359 0.0000 
245 0.0644 0.9356 0.0000 
246 0.0637 0.9363 0.0000 
247 0.0619 0.9381 0.0000 
248 0.0610 0.9390 0.0000 
249 0.0620 0.9380 0.0000 
250 0.0621 0.9379 0.0000 
251 0.0609 0.9391 0.0000 
252 0.0605 0.9395 0.0000 
253 0.0599 0.9401 0.0000 
254 0.0603 0.9397 0.0000 
255 0.0596 0.9404 0.0000 
256 0.0593 0.9407 0.0000 
257 0.0590 0.9410 0.0000 
258 0.0574 0.9426 0.0000 
259 0.0568 0.9432 0.0000 
260 0.0569 0.9431 0.0000 
261 0.0559 0.9441 0.0000 
262 0.0534 0.9466 0.0000 
263 0.0508 0.9492 0.0000 
264 0.0513 0.9487 0.0000 
265 0.0503 0.9497 0.0000 
266 0.0504 0.9496 0.0000 
267 0.0490 0.9510 0.0000 
268 0.0500 0.9500 0.0000 
269 0.0510 0.9490 0.0000 
270 0.0534 0.9466 0.0000 
271 0.0532 0.9468 0.0000 
272 0.0538 0.9462 0.0000 
273 0.0535 0.9465 0.0000 
274 0.0544 0.9456 0.0000 
275 0.0537 0.9463 0.0000 
276 0.0539 0.9461 0.0000 
277 0.0543 0.9457 0.0000 
278 0.0547 0.9453 0.0000 
279 0.0561 0.9439 0.0000 
280 0.0557 0.9443 0.0000 
281 0.0580 0.9420 0.0000 
282 0.0593 0.9407 0.0000 
283 0.0588 0.9412 0.0000 
284 0.0578 0.9422 0.0000 
285 0.0606 0.9394 0.0000 
286 0.0597 0.9403 0.0000 
287 0.0610 0.9390 0.0000 
288 0.0618 0.9382 0.0000 
289 0.0639 0.9361 0.0000 
290 0.0633 0.9367 0.0000 
291 0.0630 0.9370 0.0000 
292 0.0637 0.9363 0.0000 
293 0.0630 0.9370 0.0000 
294 0.0625 0.9375 0.0000 
295 0.0632 0.9368 0.0000 
296 0.0661 0.9339 0.0000 
297 0.0680 0.9320 0.0000 
298 0.0693 0.9307 0.0000 
299 0.0672 0.9328 0.0000 
300 0.0672 0.9328 0.0000 
301 0.0695 0.9305 0.0000 
302 0.0701 0.9299 0.0000 
303 0.0695 0.9305 0.0000 
304 0.0697 0.9303 0.0000 
305 0.0719 0.9281 0.0000 
306 0.0716 0.9284 0.0000 
307 0.0695 0.9305 0.0000 
308 0.0711 0.9289 0.0000 
309 0.0721 0.9279 0.0000 
310 0.0716 0.9284 0.0000 
311 0.0731 0.9269 0.0000 
312 0.0733 0.9267 0.0000 
313 0.0747 0.9253 0.0000 
314 0.0751 0.9249 0.0000 
315 0.0742 0.9258 0.0000 
316 0.0746 0.9254 0.0000 
317 0.0753 0.9247 0.0000 
318 0.0734 0.9266 0.0000 
319 0.0714 0.9286 0.0000 
320 0.0711 0.9289 0.0000 
321 0.0711 0.9289 0.0000 
322 0.0721 0.9279 0.0000 
323 0.0717 0.9283 0.0000 
324 0.0698 0.9302 0.0000 
325 0.0711 0.9289 0.0000 
326 0.0726 0.9274 0.0000 
327 0.0735 0.9265 0.0000 
328 0.0739 0.9261 0.0000 
329 0.0719 0.9281 0.0000 
330 0.0701 0.9299 0.0000 
331 0.0701 0.9299 0.0000 
332 0.0683 0.9317 0.0000 
333 0.0700 0.9300 0.0000 
334 0.0690 0.9310 0.0000 
335 0.0704 0.9296 0.0000 
336 0.0718 0.9282 0.0000 
337 0.0715 0.9285 0.0000 
338 0.0718 0.9282 0.0000 
339 0.0728 0.9272 0.0000 
340 0.0734 0.9266 0.0000 
341 0.0734 0.9266 0.0000 
342 0.0718 0.9282 0.0000 
343 0.0742 0.9258 0.0000 
344 0.0730 0.9270 0.0000 
345 0.0717 0.9283 0.0000 
346 0.0702 0.9298 0.0000 
347 0.0717 0.9283 0.0000 
348 0.0709 0.9291 0.0000 
349 0.0726 0.9274 0.0000 
350 0.0744 0.9256 0.0000 
351 0.0742 0.9258 0.0000 
352 0.0715 0.9285 0.0000 
353 0.0731 0.9269 0.0000 
354 0.0725 0.9275 0.0000 
355 0.0737 0.9263 0.0000 
356 0.0755 0.9245 0.0000 
357 0.0766 0.9234 0.0000 
358 0.0761 0.9239 0.0000 
359 0.0770 0.9230 0.0000 
360 0.0785 0.9215 0.0000 
361 0.0772 0.9228 0.0000 
362 0.0788 0.9212 0.0000 
363 0.0805 0.9195 0.0000 
364 0.0821 0.9179 0.0000 
365 0.0800 0.9200 0.0000 
366 0.0835 0.9165 0.0000 
367 0.0860 0.9140 0.0000 
368 0.0868 0.9132 0.0000 
369 0.0856 0.9144 0.0000 
370 0.0855 0.9145 0.0000 
371 0.0861 0.9139 0.0000 
372 0.0883 0.9117 0.0000 
373 0.0885 0.9115 0.0000 
374 0.0878 0.9122 0.0000 
375 0.0899 0.9101 0.0000 
376 0.0878 0.9122 0.0000 
377 0.0871 0.9129 0.0000 
378 0.0880 0.9120 0.0000 
379 0.0876 0.9124 0.0000 
380 0.0900 0.9100 0.0000 
381 0.0905 0.9095 0.0000 
382 0.0915 0.9085 0.0000 
383 0.0931 0.9069 0.0000 
384 0.0935 0.9065 0.0000 
385 0.0949 0.9051 0.0000 
386 0.0949 0.9051 0.0000 
387 0.0937 0.9063 0.0000 
388 0.0937 0.9063 0.0000 
389 0.0946 0.9054 0.0000 
390 0.0933 0.9067 0.0000 
391 0.0942 0.9058 0.0000 
392 0.0951 0.9049 0.0000 
393 0.0986 0.9014 0.0000 
394 0.0974 0.9026 0.0000 
395 0.0973 0.9027 0.0000 
396 0.0968 0.9032 0.0000 
397 0.0982 0.9018 0.0000 
398 0.0993 0.9007 0.0000 
399 0.1000 0.9000 0.0000 
400 0.0996 0.9004 0.0000 
401 0.0984 0.9016 0.0000 
402 0.0995 0.9005 0.0000 
403 0.1010 0.8990 0.0000 
404 0.0994 0.9006 0.0000 
405 0.0989 0.9011 0.0000 
406 0.1008 0.8992 0.0000 
407 0.0980 0.9020 0.0000 
408 0.0986 0.9014 0.0000 
409 0.0995 0.9005 0.0000 
410 0.1021 0.8979 0.0000 
411 0.1036 0.8964 0.0000 
412 0.1026 0.8974 0.0000 
413 0.1017 0.8983 0.0000 
414 0.1023 0.8977 0.0000 
415 0.0993 0.9007 0.0000 
416 0.1017 0.8983 0.0000 
417 0.0991 0.9009 0.0000 
418 0.0973 0.9027 0.0000 
419 0.0971 0.9029 0.0000 
420 0.0958 0.9042 0.0000 
421 0.0936 0.9064 0.0000 
422 0.0932 0.9068 0.0000 
423 0.0920 0.9080 0.0000 
424 0.0933 0.9067 0.0000 
425 0.0912 0.9088 0.0000 
426 0.0887 0.9113 0.0000 
427 0.0871 0.9129 0.0000 
428 0.0892 0.9108 0.0000 
429 0.0880 0.9120 0.0000 
430 0.0889 0.9111 0.0000 
431 0.0898 0.9102 0.0000 
432 0.0894 0.9106 0.0000 
433 0.0889 0.9111 0.0000 
434 0.0877 0.9123 0.0000 
435 0.0880 0.9120 0.0000 
436 0.0878 0.9122 0.0000 
437 0.0857 0.9143 0.0000 
438 0.0864 0.9136 0.0000 
439 0.0871 0.9129 0.0000 
440 0.0869 0.9131 0.0000 
441 0.0876 0.9124 0.0000 
442 0.0885 0.9115 0.0000 
443 0.0886 0.9114 0.0000 
444 0.0881 0.9119 0.0000 
445 0.0896 0.9104 0.0000 
446 0.0871 0.9129 0.0000 
447 0.0873 0.9127 0.0000 
448 0.0872 0.9128 0.0000 
449 0.0856 0.9144 0.0000 
450 0.0861 0.9139 0.0000 
451 0.0853 0.9147 0.0000 
452 0.0818 0.9182 0.0000 
453 0.0814 0.9186 0.0000 
454 0.0808 0.9192 0.0000 
455 0.0802 0.9198 0.0000 
456 0.0780 0.9220 0.0000 
457 0.0776 0.9224 0.0000 
458 0.0778 0.9222 0.0000 
459 0.0756 0.9244 0.0000 
460 0.0747 0.9253 0.0000 
461 0.0740 0.9260 0.0000 
462 0.0732 0.9268 0.0000 
463 0.0718 0.9282 0.0000 
464 0.0738 0.9262 0.0000 
465 0.0717 0.9283 0.0000 
466 0.0733 0.9267 0.0000 
467 0.0733 0.9267 0.0000 
468 0.0752 0.9248 0.0000 
469 0.0745 0.9255 0.0000 
470 0.0714 0.9286 0.0000 
471 0.0703 0.9297 0.0000 
472 0.0689 0.9311 0.0000 
473 0.0713 0.9287 0.0000 
474 0.0682 0.9318 0.0000 
475 0.0681 0.9319 0.0000 
476 0.0698 0.9302 0.0000 
477 0.0724 0.9276 0.0000 
478 0.0722 0.9278 0.0000 
479 0.0736 0.9264 0.0000 
480 0.0748 0.9252 0.0000 
481 0.0755 0.9245 0.0000 
482 0.0769 0.9231 0.0000 
483 0.0772 0.9228 0.0000 
484 0.0774 0.9226 0.0000 
485 0.0781 0.9219 0.0000 
486 0.0794 0.9206 0.0000 
487 0.0788 0.9212 0.0000 
488 0.0782 0.9218 0.0000 
489 0.0801 0.9199 0.0000 
490 0.0809 0.9191 0.0000 
491 0.0800 0.9200 0.0000 
492 0.0801 0.9199 0.0000 
493 0.0790 0.9210 0.0000 
494 0.0782 0.9218 0.0000 
495 0.0789 0.9211 0.0000 
496 0.0757 0.9243 0.0000 
497 0.0754 0.9246 0.0000 
498 0.0730 0.9270 0.0000 
499 0.0713 0.9287 0.0000 
