0 0.4950 0.5050 0.0000 
1 0.3080 0.6921 0.0000 
2 0.1858 0.8142 0.0000 
3 0.1126 0.8874 0.0000 
4 0.0713 0.9286 0.0000 
5 0.0495 0.9505 0.0000 
6 0.0389 0.9611 0.0000 
7 0.0336 0.9664 0.0000 
8 0.0303 0.9697 0.0000 
9 0.0278 0.9721 0.0000 
10 0.0258 0.9742 0.0000 
11 0.0240 0.9760 0.0000 
12 0.0234 0.9766 0.0000 
13 0.0232 0.9768 0.0000 
14 0.0233 0.9767 0.0000 
15 0.0230 0.9770 0.0000 
16 0.0228 0.9771 0.0000 
17 0.0234 0.9766 0.0000 
18 0.0241 0.9759 0.0000 
19 0.0244 0.9756 0.0000 
20 0.0245 0.9755 0.0000 
21 0.0250 0.9749 0.0000 
22 0.0241 0.9759 0.0000 
23 0.0249 0.9751 0.0000 
24 0.0254 0.9746 0.0000 
25 0.0253 0.9747 0.0000 
26 0.0261 0.9738 0.0000 
27 0.0266 0.9734 0.0000 
28 0.0274 0.9726 0.0000 
29 0.0274 0.9726 0.0000 
30 0.0287 0.9713 0.0000 
31 0.0299 0.9701 0.0000 
32 0.0316 0.9684 0.0000 
33 0.0321 0.9679 0.0000 
34 0.0319 0.9681 0.0000 
35 0.0326 0.9674 0.0000 
36 0.0335 0.9665 0.0000 
37 0.0330 0.9670 0.0000 
38 0.0331 0.9669 0.0000 
39 0.0331 0.9668 0.0000 
40 0.0341 0.9659 0.0000 
41 0.0344 0.9656 0.0000 
42 0.0339 0.9661 0.0000 
43 0.0343 0.9657 0.0000 
44 0.0350 0.9650 0.0000 
45 0.0345 0.9655 0.0000 
46 0.0349 0.9651 0.0000 
47 0.0343 0.9657 0.0000 
48 0.0344 0.9656 0.0000 
49 0.0358 0.9642 0.0000 
50 0.0359 0.9641 0.0000 
51 0.0364 0.9636 0.0000 
52 0.0360 0.9640 0.0000 
53 0.0360 0.9640 0.0000 
54 0.0365 0.9635 0.0000 
55 0.0364 0.9636 0.0000 
56 0.0365 0.9635 0.0000 
57 0.0368 0.9632 0.0000 
58 0.0377 0.9623 0.0000 
59 0.0374 0.9626 0.0000 
60 0.0386 0.9614 0.0000 
61 0.0379 0.9621 0.0000 
62 0.0382 0.9618 0.0000 
63 0.0385 0.9615 0.0000 
64 0.0387 0.9613 0.0000 
65 0.0385 0.9615 0.0000 
66 0.0384 0.9616 0.0000 
67 0.0392 0.9608 0.0000 
68 0.0399 0.9601 0.0000 
69 0.0401 0.9599 0.0000 
70 0.0403 0.9597 0.0000 
71 0.0407 0.9593 0.0000 
72 0.0402 0.9598 0.0000 
73 0.0396 0.9604 0.0000 
74 0.0404 0.9596 0.0000 
75 0.0413 0.9587 0.0000 
76 0.0420 0.9580 0.0000 
77 0.0414 0.9586 0.0000 
78 0.0422 0.9578 0.0000 
79 0.0421 0.9579 0.0000 
80 0.0425 0.9575 0.0000 
81 0.0428 0.9572 0.0000 
82 0.0427 0.9573 0.0000 
83 0.0429 0.9571 0.0000 
84 0.0433 0.9567 0.0000 
85 0.0428 0.9572 0.0000 
86 0.0428 0.9572 0.0000 
87 0.0426 0.9574 0.0000 
88 0.0425 0.9575 0.0000 
89 0.0430 0.9570 0.0000 
90 0.0432 0.9568 0.0000 
91 0.0439 0.9562 0.0000 
92 0.0439 0.9561 0.0000 
93 0.0442 0.9558 0.0000 
94 0.0447 0.9554 0.0000 
95 0.0458 0.9542 0.0000 
96 0.0464 0.9536 0.0000 
97 0.0458 0.9542 0.0000 
98 0.0453 0.9547 0.0000 
99 0.0457 0.9543 0.0000 
100 0.0450 0.9550 0.0000 
101 0.0447 0.9553 0.0000 
102 0.0447 0.9554 0.0000 
103 0.0438 0.9562 0.0000 
104 0.0454 0.9546 0.0000 
105 0.0448 0.9552 0.0000 
106 0.0455 0.9545 0.0000 
107 0.0453 0.9547 0.0000 
108 0.0447 0.9553 0.0000 
109 0.0446 0.9554 0.0000 
110 0.0454 0.9546 0.0000 
111 0.0445 0.9555 0.0000 
112 0.0450 0.9550 0.0000 
113 0.0451 0.9549 0.0000 
114 0.0443 0.9557 0.0000 
115 0.0440 0.9560 0.0000 
116 0.0451 0.9549 0.0000 
117 0.0450 0.9550 0.0000 
118 0.0441 0.9559 0.0000 
119 0.0435 0.9565 0.0000 
120 0.0437 0.9563 0.0000 
121 0.0432 0.9568 0.0000 
122 0.0427 0.9573 0.0000 
123 0.0438 0.9562 0.0000 
124 0.0437 0.9563 0.0000 
125 0.0439 0.9561 0.0000 
126 0.0440 0.9560 0.0000 
127 0.0445 0.9555 0.0000 
128 0.0451 0.9549 0.0000 
129 0.0455 0.9545 0.0000 
130 0.0462 0.9538 0.0000 
131 0.0470 0.9530 0.0000 
132 0.0475 0.9525 0.0000 
133 0.0472 0.9528 0.0000 
134 0.0478 0.9523 0.0000 
135 0.0474 0.9526 0.0000 
136 0.0466 0.9535 0.0000 
137 0.0471 0.9529 0.0000 
138 0.0473 0.9527 0.0000 
139 0.0472 0.9528 0.0000 
140 0.0480 0.9520 0.0000 
141 0.0482 0.9518 0.0000 
142 0.0484 0.9516 0.0000 
143 0.0483 0.9517 0.0000 
144 0.0486 0.9514 0.0000 
145 0.0487 0.9513 0.0000 
146 0.0491 0.9509 0.0000 
147 0.0499 0.9501 0.0000 
148 0.0498 0.9502 0.0000 
149 0.0501 0.9499 0.0000 
150 0.0511 0.9489 0.0000 
151 0.0508 0.9493 0.0000 
152 0.0515 0.9486 0.0000 
153 0.0515 0.9485 0.0000 
154 0.0509 0.9491 0.0000 
155 0.0514 0.9486 0.0000 
156 0.0517 0.9483 0.0000 
157 0.0521 0.9479 0.0000 
158 0.0528 0.9472 0.0000 
159 0.0531 0.9469 0.0000 
160 0.0525 0.9475 0.0000 
161 0.0527 0.9473 0.0000 
162 0.0528 0.9472 0.0000 
163 0.0521 0.9479 0.0000 
164 0.0520 0.9480 0.0000 
165 0.0522 0.9477 0.0000 
166 0.0528 0.9472 0.0000 
167 0.0536 0.9465 0.0000 
168 0.0536 0.9464 0.0000 
169 0.0539 0.9461 0.0000 
170 0.0549 0.9452 0.0000 
171 0.0554 0.9446 0.0000 
172 0.0553 0.9447 0.0000 
173 0.0555 0.9445 0.0000 
174 0.0563 0.9437 0.0000 
175 0.0565 0.9435 0.0000 
176 0.0566 0.9434 0.0000 
177 0.0575 0.9425 0.0000 
178 0.0581 0.9419 0.0000 
179 0.0577 0.9423 0.0000 
180 0.0572 0.9428 0.0000 
181 0.0561 0.9439 0.0000 
182 0.0563 0.9437 0.0000 
183 0.0565 0.9435 0.0000 
184 0.0565 0.9435 0.0000 
185 0.0573 0.9427 0.0000 
186 0.0578 0.9423 0.0000 
187 0.0572 0.9428 0.0000 
188 0.0569 0.9431 0.0000 
189 0.0575 0.9425 0.0000 
190 0.0568 0.9432 0.0000 
191 0.0555 0.9445 0.0000 
192 0.0558 0.9442 0.0000 
193 0.0557 0.9443 0.0000 
194 0.0563 0.9437 0.0000 
195 0.0568 0.9432 0.0000 
196 0.0568 0.9432 0.0000 
197 0.0570 0.9430 0.0000 
198 0.0571 0.9429 0.0000 
199 0.0576 0.9424 0.0000 
200 0.0579 0.9421 0.0000 
201 0.0587 0.9413 0.0000 
202 0.0589 0.9411 0.0000 
203 0.0584 0.9416 0.0000 
204 0.0576 0.9424 0.0000 
205 0.0576 0.9424 0.0000 
206 0.0579 0.9421 0.0000 
207 0.0577 0.9423 0.0000 
208 0.0585 0.9415 0.0000 
209 0.0587 0.9413 0.0000 
210 0.0585 0.9415 0.0000 
211 0.0588 0.9412 0.0000 
212 0.0582 0.9418 0.0000 
213 0.0586 0.9414 0.0000 
214 0.0578 0.9423 0.0000 
215 0.0573 0.9427 0.0000 
216 0.0576 0.9424 0.0000 
217 0.0575 0.9425 0.0000 
218 0.0569 0.9431 0.0000 
219 0.0565 0.9435 0.0000 
220 0.0568 0.9432 0.0000 
221 0.0571 0.9429 0.0000 
222 0.0576 0.9424 0.0000 
223 0.0578 0.9422 0.0000 
224 0.0582 0.9418 0.0000 
225 0.0585 0.9415 0.0000 
226 0.0600 0.9400 0.0000 
227 0.0602 0.9398 0.0000 
228 0.0608 0.9392 0.0000 
229 0.0612 0.9388 0.0000 
230 0.0618 0.9382 0.0000 
231 0.0621 0.9378 0.0000 
232 0.0632 0.9368 0.0000 
233 0.0627 0.9373 0.0000 
234 0.0629 0.9371 0.0000 
235 0.0624 0.9376 0.0000 
236 0.0635 0.9365 0.0000 
237 0.0633 0.9367 0.0000 
238 0.0645 0.9355 0.0000 
239 0.0646 0.9354 0.0000 
240 0.0635 0.9365 0.0000 
241 0.0636 0.9364 0.0000 
242 0.0644 0.9356 0.0000 
243 0.0643 0.9357 0.0000 
244 0.0643 0.9357 0.0000 
245 0.0647 0.9353 0.0000 
246 0.0659 0.9341 0.0000 
247 0.0663 0.9337 0.0000 
248 0.0667 0.9333 0.0000 
249 0.0681 0.9319 0.0000 
250 0.0677 0.9323 0.0000 
251 0.0677 0.9324 0.0000 
252 0.0678 0.9323 0.0000 
253 0.0674 0.9326 0.0000 
254 0.0672 0.9328 0.0000 
255 0.0675 0.9325 0.0000 
256 0.0689 0.9311 0.0000 
257 0.0682 0.9318 0.0000 
258 0.0688 0.9313 0.0000 
259 0.0694 0.9306 0.0000 
260 0.0699 0.9301 0.0000 
261 0.0711 0.9289 0.0000 
262 0.0713 0.9287 0.0000 
263 0.0712 0.9288 0.0000 
264 0.0727 0.9273 0.0000 
265 0.0735 0.9265 0.0000 
266 0.0749 0.9251 0.0000 
267 0.0737 0.9263 0.0000 
268 0.0745 0.9255 0.0000 
269 0.0737 0.9263 0.0000 
270 0.0737 0.9263 0.0000 
271 0.0727 0.9274 0.0000 
272 0.0722 0.9278 0.0000 
273 0.0719 0.9281 0.0000 
274 0.0724 0.9276 0.0000 
275 0.0725 0.9275 0.0000 
276 0.0714 0.9286 0.0000 
277 0.0696 0.9304 0.0000 
278 0.0688 0.9312 0.0000 
279 0.0686 0.9314 0.0000 
280 0.0693 0.9307 0.0000 
281 0.0685 0.9315 0.0000 
282 0.0693 0.9307 0.0000 
283 0.0695 0.9305 0.0000 
284 0.0709 0.9291 0.0000 
285 0.0712 0.9288 0.0000 
286 0.0710 0.9290 0.0000 
287 0.0710 0.9290 0.0000 
288 0.0721 0.9279 0.0000 
289 0.0712 0.9287 0.0000 
290 0.0714 0.9285 0.0000 
291 0.0720 0.9280 0.0000 
292 0.0730 0.9270 0.0000 
293 0.0730 0.9271 0.0000 
294 0.0731 0.9269 0.0000 
295 0.0743 0.9257 0.0000 
296 0.0752 0.9248 0.0000 
297 0.0754 0.9246 0.0000 
298 0.0764 0.9236 0.0000 
299 0.0763 0.9237 0.0000 
300 0.0776 0.9224 0.0000 
301 0.0776 0.9224 0.0000 
302 0.0772 0.9228 0.0000 
303 0.0764 0.9236 0.0000 
304 0.0763 0.9237 0.0000 
305 0.0754 0.9246 0.0000 
306 0.0758 0.9242 0.0000 
307 0.0765 0.9235 0.0000 
308 0.0770 0.9230 0.0000 
309 0.0778 0.9222 0.0000 
310 0.0782 0.9218 0.0000 
311 0.0785 0.9215 0.0000 
312 0.0782 0.9218 0.0000 
313 0.0786 0.9214 0.0000 
314 0.0785 0.9215 0.0000 
315 0.0791 0.9209 0.0000 
316 0.0798 0.9203 0.0000 
317 0.0799 0.9201 0.0000 
318 0.0801 0.9199 0.0000 
319 0.0804 0.9196 0.0000 
320 0.0800 0.9200 0.0000 
321 0.0813 0.9187 0.0000 
322 0.0812 0.9188 0.0000 
323 0.0817 0.9183 0.0000 
324 0.0823 0.9177 0.0000 
325 0.0830 0.9170 0.0000 
326 0.0834 0.9166 0.0000 
327 0.0831 0.9169 0.0000 
328 0.0825 0.9175 0.0000 
329 0.0821 0.9179 0.0000 
330 0.0827 0.9173 0.0000 
331 0.0827 0.9173 0.0000 
332 0.0827 0.9173 0.0000 
333 0.0823 0.9177 0.0000 
334 0.0826 0.9174 0.0000 
335 0.0829 0.9171 0.0000 
336 0.0834 0.9166 0.0000 
337 0.0836 0.9164 0.0000 
338 0.0828 0.9173 0.0000 
339 0.0823 0.9177 0.0000 
340 0.0827 0.9173 0.0000 
341 0.0827 0.9173 0.0000 
342 0.0827 0.9173 0.0000 
343 0.0830 0.9170 0.0000 
344 0.0841 0.9159 0.0000 
345 0.0850 0.9150 0.0000 
346 0.0846 0.9154 0.0000 
347 0.0850 0.9150 0.0000 
348 0.0845 0.9155 0.0000 
349 0.0849 0.9151 0.0000 
350 0.0847 0.9153 0.0000 
351 0.0854 0.9146 0.0000 
352 0.0855 0.9145 0.0000 
353 0.0859 0.9141 0.0000 
354 0.0853 0.9147 0.0000 
355 0.0853 0.9147 0.0000 
356 0.0855 0.9145 0.0000 
357 0.0854 0.9146 0.0000 
358 0.0857 0.9143 0.0000 
359 0.0854 0.9145 0.0000 
360 0.0861 0.9139 0.0000 
361 0.0866 0.9134 0.0000 
362 0.0879 0.9121 0.0000 
363 0.0887 0.9113 0.0000 
364 0.0880 0.9120 0.0000 
365 0.0888 0.9112 0.0000 
366 0.0898 0.9102 0.0000 
367 0.0903 0.9097 0.0000 
368 0.0899 0.9101 0.0000 
369 0.0909 0.9091 0.0000 
370 0.0902 0.9098 0.0000 
371 0.0910 0.9091 0.0000 
372 0.0917 0.9083 0.0000 
373 0.0910 0.9090 0.0000 
374 0.0910 0.9091 0.0000 
375 0.0895 0.9105 0.0000 
376 0.0899 0.9101 0.0000 
377 0.0914 0.9086 0.0000 
378 0.0905 0.9095 0.0000 
379 0.0912 0.9088 0.0000 
380 0.0909 0.9092 0.0000 
381 0.0900 0.9100 0.0000 
382 0.0901 0.9099 0.0000 
383 0.0902 0.9098 0.0000 
384 0.0911 0.9090 0.0000 
385 0.0910 0.9090 0.0000 
386 0.0908 0.9092 0.0000 
387 0.0914 0.9086 0.0000 
388 0.0916 0.9083 0.0000 
389 0.0917 0.9083 0.0000 
390 0.0915 0.9085 0.0000 
391 0.0901 0.9100 0.0000 
392 0.0888 0.9112 0.0000 
393 0.0890 0.9111 0.0000 
394 0.0899 0.9101 0.0000 
395 0.0919 0.9081 0.0000 
396 0.0917 0.9083 0.0000 
397 0.0929 0.9072 0.0000 
398 0.0937 0.9063 0.0000 
399 0.0934 0.9066 0.0000 
400 0.0925 0.9075 0.0000 
401 0.0925 0.9075 0.0000 
402 0.0933 0.9067 0.0000 
403 0.0934 0.9066 0.0000 
404 0.0943 0.9057 0.0000 
405 0.0952 0.9048 0.0000 
406 0.0950 0.9050 0.0000 
407 0.0955 0.9045 0.0000 
408 0.0958 0.9042 0.0000 
409 0.0958 0.9042 0.0000 
410 0.0949 0.9051 0.0000 
411 0.0954 0.9046 0.0000 
412 0.0958 0.9042 0.0000 
413 0.0948 0.9052 0.0000 
414 0.0943 0.9057 0.0000 
415 0.0944 0.9056 0.0000 
416 0.0949 0.9051 0.0000 
417 0.0964 0.9036 0.0000 
418 0.0961 0.9039 0.0000 
419 0.0956 0.9043 0.0000 
420 0.0961 0.9039 0.0000 
421 0.0963 0.9037 0.0000 
422 0.0963 0.9037 0.0000 
423 0.0949 0.9051 0.0000 
424 0.0971 0.9029 0.0000 
425 0.0976 0.9024 0.0000 
426 0.0988 0.9012 0.0000 
427 0.0986 0.9014 0.0000 
428 0.0990 0.9010 0.0000 
429 0.0998 0.9002 0.0000 
430 0.1007 0.8993 0.0000 
431 0.0996 0.9004 0.0000 
432 0.0993 0.9006 0.0000 
433 0.1002 0.8998 0.0000 
434 0.1006 0.8994 0.0000 
435 0.1007 0.8993 0.0000 
436 0.1012 0.8988 0.0000 
437 0.1014 0.8986 0.0000 
438 0.1019 0.8981 0.0000 
439 0.1022 0.8978 0.0000 
440 0.1029 0.8971 0.0000 
441 0.1043 0.8957 0.0000 
442 0.1038 0.8962 0.0000 
443 0.1042 0.8958 0.0000 
444 0.1048 0.8952 0.0000 
445 0.1051 0.8949 0.0000 
446 0.1074 0.8926 0.0000 
447 0.1081 0.8919 0.0000 
448 0.1076 0.8924 0.0000 
449 0.1077 0.8923 0.0000 
450 0.1079 0.8921 0.0000 
451 0.1072 0.8928 0.0000 
452 0.1066 0.8934 0.0000 
453 0.1060 0.8940 0.0000 
454 0.1076 0.8923 0.0000 
455 0.1065 0.8935 0.0000 
456 0.1074 0.8927 0.0000 
457 0.1081 0.8919 0.0000 
458 0.1097 0.8903 0.0000 
459 0.1108 0.8892 0.0000 
460 0.1115 0.8885 0.0000 
461 0.1102 0.8898 0.0000 
462 0.1103 0.8897 0.0000 
463 0.1122 0.8878 0.0000 
464 0.1134 0.8866 0.0000 
465 0.1140 0.8860 0.0000 
466 0.1135 0.8864 0.0000 
467 0.1145 0.8855 0.0000 
468 0.1152 0.8849 0.0000 
469 0.1162 0.8838 0.0000 
470 0.1174 0.8826 0.0000 
471 0.1174 0.8826 0.0000 
472 0.1167 0.8833 0.0000 
473 0.1164 0.8836 0.0000 
474 0.1172 0.8828 0.0000 
475 0.1171 0.8829 0.0000 
476 0.1174 0.8826 0.0000 
477 0.1177 0.8823 0.0000 
478 0.1190 0.8810 0.0000 
479 0.1182 0.8818 0.0000 
480 0.1191 0.8809 0.0000 
481 0.1192 0.8809 0.0000 
482 0.1197 0.8802 0.0000 
483 0.1204 0.8796 0.0000 
484 0.1207 0.8792 0.0000 
485 0.1208 0.8791 0.0000 
486 0.1212 0.8788 0.0000 
487 0.1225 0.8775 0.0000 
488 0.1214 0.8786 0.0000 
489 0.1225 0.8775 0.0000 
490 0.1221 0.8779 0.0000 
491 0.1234 0.8767 0.0000 
492 0.1227 0.8773 0.0000 
493 0.1232 0.8768 0.0000 
494 0.1225 0.8775 0.0000 
495 0.1205 0.8795 0.0000 
496 0.1191 0.8809 0.0000 
497 0.1178 0.8822 0.0000 
498 0.1174 0.8825 0.0000 
499 0.1187 0.8813 0.0000 
500 0.1181 0.8819 0.0000 
501 0.1193 0.8807 0.0000 
502 0.1194 0.8806 0.0000 
503 0.1196 0.8804 0.0000 
504 0.1197 0.8803 0.0000 
505 0.1206 0.8793 0.0000 
506 0.1191 0.8809 0.0000 
507 0.1202 0.8798 0.0000 
508 0.1194 0.8806 0.0000 
509 0.1201 0.8800 0.0000 
510 0.1222 0.8778 0.0000 
511 0.1226 0.8774 0.0000 
512 0.1232 0.8768 0.0000 
513 0.1227 0.8773 0.0000 
514 0.1241 0.8759 0.0000 
515 0.1242 0.8758 0.0000 
516 0.1224 0.8776 0.0000 
517 0.1245 0.8755 0.0000 
518 0.1253 0.8747 0.0000 
519 0.1265 0.8734 0.0000 
520 0.1263 0.8737 0.0000 
521 0.1259 0.8741 0.0000 
522 0.1265 0.8734 0.0000 
523 0.1271 0.8729 0.0000 
524 0.1272 0.8728 0.0000 
525 0.1253 0.8747 0.0000 
526 0.1250 0.8750 0.0000 
527 0.1258 0.8742 0.0000 
528 0.1272 0.8728 0.0000 
529 0.1270 0.8730 0.0000 
530 0.1278 0.8722 0.0000 
531 0.1280 0.8720 0.0000 
532 0.1275 0.8725 0.0000 
533 0.1279 0.8721 0.0000 
534 0.1280 0.8720 0.0000 
535 0.1267 0.8733 0.0000 
536 0.1273 0.8727 0.0000 
537 0.1279 0.8721 0.0000 
538 0.1281 0.8719 0.0000 
539 0.1282 0.8718 0.0000 
540 0.1299 0.8701 0.0000 
541 0.1310 0.8690 0.0000 
542 0.1300 0.8700 0.0000 
543 0.1306 0.8693 0.0000 
544 0.1303 0.8697 0.0000 
545 0.1309 0.8691 0.0000 
546 0.1316 0.8683 0.0000 
547 0.1298 0.8702 0.0000 
548 0.1301 0.8699 0.0000 
549 0.1308 0.8692 0.0000 
550 0.1311 0.8689 0.0000 
551 0.1310 0.8690 0.0000 
552 0.1316 0.8684 0.0000 
553 0.1325 0.8676 0.0000 
554 0.1323 0.8677 0.0000 
555 0.1313 0.8687 0.0000 
556 0.1323 0.8677 0.0000 
557 0.1330 0.8670 0.0000 
558 0.1333 0.8668 0.0000 
559 0.1318 0.8682 0.0000 
560 0.1317 0.8683 0.0000 
561 0.1332 0.8668 0.0000 
562 0.1327 0.8673 0.0000 
563 0.1334 0.8666 0.0000 
564 0.1323 0.8677 0.0000 
565 0.1336 0.8663 0.0000 
566 0.1340 0.8660 0.0000 
567 0.1358 0.8642 0.0000 
568 0.1351 0.8649 0.0000 
569 0.1371 0.8629 0.0000 
570 0.1385 0.8615 0.0000 
571 0.1378 0.8622 0.0000 
572 0.1358 0.8642 0.0000 
573 0.1354 0.8646 0.0000 
574 0.1358 0.8642 0.0000 
575 0.1361 0.8639 0.0000 
576 0.1346 0.8655 0.0000 
577 0.1346 0.8653 0.0000 
578 0.1344 0.8656 0.0000 
579 0.1336 0.8664 0.0000 
580 0.1338 0.8662 0.0000 
581 0.1343 0.8657 0.0000 
582 0.1330 0.8670 0.0000 
583 0.1321 0.8679 0.0000 
584 0.1307 0.8693 0.0000 
585 0.1288 0.8712 0.0000 
586 0.1279 0.8721 0.0000 
587 0.1283 0.8717 0.0000 
588 0.1268 0.8732 0.0000 
589 0.1271 0.8729 0.0000 
590 0.1268 0.8732 0.0000 
591 0.1265 0.8734 0.0000 
592 0.1273 0.8727 0.0000 
593 0.1277 0.8723 0.0000 
594 0.1274 0.8726 0.0000 
595 0.1261 0.8739 0.0000 
596 0.1277 0.8723 0.0000 
597 0.1276 0.8724 0.0000 
598 0.1293 0.8707 0.0000 
599 0.1294 0.8706 0.0000 
600 0.1294 0.8706 0.0000 
601 0.1294 0.8706 0.0000 
602 0.1288 0.8712 0.0000 
603 0.1291 0.8709 0.0000 
604 0.1278 0.8722 0.0000 
605 0.1273 0.8727 0.0000 
606 0.1274 0.8726 0.0000 
607 0.1277 0.8723 0.0000 
608 0.1278 0.8722 0.0000 
609 0.1285 0.8714 0.0000 
610 0.1283 0.8718 0.0000 
611 0.1282 0.8718 0.0000 
612 0.1294 0.8706 0.0000 
613 0.1297 0.8703 0.0000 
614 0.1310 0.8690 0.0000 
615 0.1313 0.8687 0.0000 
616 0.1322 0.8678 0.0000 
617 0.1324 0.8676 0.0000 
618 0.1333 0.8667 0.0000 
619 0.1340 0.8660 0.0000 
620 0.1354 0.8646 0.0000 
621 0.1345 0.8655 0.0000 
622 0.1366 0.8633 0.0000 
623 0.1352 0.8648 0.0000 
624 0.1351 0.8649 0.0000 
625 0.1355 0.8645 0.0000 
626 0.1362 0.8638 0.0000 
627 0.1351 0.8649 0.0000 
628 0.1347 0.8653 0.0000 
629 0.1353 0.8648 0.0000 
630 0.1370 0.8630 0.0000 
631 0.1373 0.8627 0.0000 
632 0.1371 0.8629 0.0000 
633 0.1371 0.8629 0.0000 
634 0.1382 0.8618 0.0000 
635 0.1392 0.8608 0.0000 
636 0.1393 0.8607 0.0000 
637 0.1391 0.8609 0.0000 
638 0.1403 0.8598 0.0000 
639 0.1388 0.8612 0.0000 
640 0.1385 0.8615 0.0000 
641 0.1374 0.8626 0.0000 
642 0.1384 0.8617 0.0000 
643 0.1386 0.8614 0.0000 
644 0.1398 0.8602 0.0000 
645 0.1407 0.8592 0.0000 
646 0.1405 0.8595 0.0000 
647 0.1403 0.8597 0.0000 
648 0.1409 0.8591 0.0000 
649 0.1422 0.8578 0.0000 
650 0.1434 0.8566 0.0000 
651 0.1442 0.8558 0.0000 
652 0.1451 0.8549 0.0000 
653 0.1461 0.8539 0.0000 
654 0.1456 0.8544 0.0000 
655 0.1470 0.8530 0.0000 
656 0.1466 0.8534 0.0000 
657 0.1472 0.8528 0.0000 
658 0.1469 0.8531 0.0000 
659 0.1462 0.8538 0.0000 
660 0.1471 0.8529 0.0000 
661 0.1480 0.8519 0.0000 
662 0.1482 0.8518 0.0000 
663 0.1467 0.8533 0.0000 
664 0.1463 0.8537 0.0000 
665 0.1460 0.8540 0.0000 
666 0.1452 0.8548 0.0000 
667 0.1431 0.8569 0.0000 
668 0.1434 0.8566 0.0000 
669 0.1440 0.8560 0.0000 
670 0.1437 0.8563 0.0000 
671 0.1420 0.8580 0.0000 
672 0.1426 0.8574 0.0000 
673 0.1437 0.8563 0.0000 
674 0.1436 0.8564 0.0000 
675 0.1439 0.8561 0.0000 
676 0.1450 0.8550 0.0000 
677 0.1446 0.8554 0.0000 
678 0.1444 0.8556 0.0000 
679 0.1448 0.8552 0.0000 
680 0.1452 0.8548 0.0000 
681 0.1457 0.8543 0.0000 
682 0.1454 0.8546 0.0000 
683 0.1454 0.8546 0.0000 
684 0.1457 0.8543 0.0000 
685 0.1461 0.8539 0.0000 
686 0.1456 0.8544 0.0000 
687 0.1458 0.8542 0.0000 
688 0.1456 0.8545 0.0000 
689 0.1456 0.8545 0.0000 
690 0.1479 0.8521 0.0000 
691 0.1484 0.8516 0.0000 
692 0.1500 0.8500 0.0000 
693 0.1487 0.8513 0.0000 
694 0.1475 0.8525 0.0000 
695 0.1480 0.8520 0.0000 
696 0.1472 0.8528 0.0000 
697 0.1481 0.8519 0.0000 
698 0.1487 0.8513 0.0000 
699 0.1495 0.8505 0.0000 
700 0.1509 0.8491 0.0000 
701 0.1506 0.8494 0.0000 
702 0.1508 0.8492 0.0000 
703 0.1515 0.8485 0.0000 
704 0.1524 0.8476 0.0000 
705 0.1530 0.8470 0.0000 
706 0.1534 0.8466 0.0000 
707 0.1538 0.8461 0.0000 
708 0.1530 0.8470 0.0000 
709 0.1518 0.8482 0.0000 
710 0.1522 0.8478 0.0000 
711 0.1526 0.8474 0.0000 
712 0.1523 0.8477 0.0000 
713 0.1522 0.8478 0.0000 
714 0.1540 0.8460 0.0000 
715 0.1541 0.8459 0.0000 
716 0.1538 0.8462 0.0000 
717 0.1560 0.8440 0.0000 
718 0.1561 0.8439 0.0000 
719 0.1546 0.8454 0.0000 
720 0.1538 0.8462 0.0000 
721 0.1539 0.8461 0.0000 
722 0.1537 0.8463 0.0000 
723 0.1532 0.8468 0.0000 
724 0.1530 0.8470 0.0000 
725 0.1523 0.8477 0.0000 
726 0.1518 0.8482 0.0000 
727 0.1534 0.8466 0.0000 
728 0.1520 0.8480 0.0000 
729 0.1535 0.8465 0.0000 
730 0.1529 0.8471 0.0000 
731 0.1541 0.8459 0.0000 
732 0.1537 0.8463 0.0000 
733 0.1544 0.8456 0.0000 
734 0.1538 0.8462 0.0000 
735 0.1549 0.8451 0.0000 
736 0.1561 0.8439 0.0000 
737 0.1561 0.8439 0.0000 
738 0.1564 0.8436 0.0000 
739 0.1559 0.8441 0.0000 
740 0.1543 0.8457 0.0000 
741 0.1540 0.8460 0.0000 
742 0.1533 0.8467 0.0000 
743 0.1523 0.8477 0.0000 
744 0.1508 0.8492 0.0000 
745 0.1518 0.8482 0.0000 
746 0.1509 0.8491 0.0000 
747 0.1504 0.8497 0.0000 
748 0.1514 0.8486 0.0000 
749 0.1511 0.8489 0.0000 
750 0.1522 0.8478 0.0000 
751 0.1528 0.8472 0.0000 
752 0.1525 0.8475 0.0000 
753 0.1545 0.8456 0.0000 
754 0.1570 0.8430 0.0000 
755 0.1563 0.8437 0.0000 
756 0.1568 0.8432 0.0000 
757 0.1562 0.8438 0.0000 
758 0.1573 0.8427 0.0000 
759 0.1574 0.8426 0.0000 
760 0.1588 0.8412 0.0000 
761 0.1591 0.8409 0.0000 
762 0.1585 0.8416 0.0000 
763 0.1577 0.8423 0.0000 
764 0.1573 0.8427 0.0000 
765 0.1562 0.8438 0.0000 
766 0.1558 0.8442 0.0000 
767 0.1554 0.8446 0.0000 
768 0.1552 0.8448 0.0000 
769 0.1566 0.8434 0.0000 
770 0.1566 0.8434 0.0000 
771 0.1571 0.8429 0.0000 
772 0.1577 0.8423 0.0000 
773 0.1565 0.8435 0.0000 
774 0.1569 0.8431 0.0000 
775 0.1565 0.8436 0.0000 
776 0.1565 0.8435 0.0000 
777 0.1552 0.8448 0.0000 
778 0.1552 0.8448 0.0000 
779 0.1553 0.8447 0.0000 
780 0.1555 0.8445 0.0000 
781 0.1570 0.8430 0.0000 
782 0.1565 0.8436 0.0000 
783 0.1555 0.8445 0.0000 
784 0.1551 0.8449 0.0000 
785 0.1549 0.8451 0.0000 
786 0.1547 0.8453 0.0000 
787 0.1564 0.8436 0.0000 
788 0.1551 0.8449 0.0000 
789 0.1553 0.8447 0.0000 
790 0.1555 0.8445 0.0000 
791 0.1547 0.8454 0.0000 
792 0.1540 0.8460 0.0000 
793 0.1533 0.8467 0.0000 
794 0.1545 0.8455 0.0000 
795 0.1527 0.8472 0.0000 
796 0.1520 0.8480 0.0000 
797 0.1519 0.8481 0.0000 
798 0.1511 0.8489 0.0000 
799 0.1506 0.8494 0.0000 
800 0.1507 0.8493 0.0000 
801 0.1508 0.8492 0.0000 
802 0.1499 0.8501 0.0000 
803 0.1503 0.8497 0.0000 
804 0.1502 0.8498 0.0000 
805 0.1504 0.8496 0.0000 
806 0.1506 0.8494 0.0000 
807 0.1507 0.8494 0.0000 
808 0.1498 0.8502 0.0000 
809 0.1522 0.8478 0.0000 
810 0.1528 0.8472 0.0000 
811 0.1539 0.8461 0.0000 
812 0.1528 0.8472 0.0000 
813 0.1532 0.8468 0.0000 
814 0.1537 0.8463 0.0000 
815 0.1526 0.8474 0.0000 
816 0.1504 0.8496 0.0000 
817 0.1505 0.8495 0.0000 
818 0.1497 0.8504 0.0000 
819 0.1500 0.8499 0.0000 
820 0.1522 0.8478 0.0000 
821 0.1524 0.8477 0.0000 
822 0.1524 0.8477 0.0000 
823 0.1528 0.8472 0.0000 
824 0.1524 0.8476 0.0000 
825 0.1547 0.8453 0.0000 
826 0.1559 0.8441 0.0000 
827 0.1563 0.8437 0.0000 
828 0.1564 0.8436 0.0000 
829 0.1561 0.8439 0.0000 
830 0.1560 0.8439 0.0000 
831 0.1582 0.8418 0.0000 
832 0.1591 0.8409 0.0000 
833 0.1611 0.8389 0.0000 
834 0.1628 0.8373 0.0000 
835 0.1627 0.8373 0.0000 
836 0.1612 0.8388 0.0000 
837 0.1618 0.8381 0.0000 
838 0.1636 0.8364 0.0000 
839 0.1652 0.8348 0.0000 
840 0.1670 0.8330 0.0000 
841 0.1677 0.8323 0.0000 
842 0.1658 0.8342 0.0000 
843 0.1671 0.8329 0.0000 
844 0.1674 0.8326 0.0000 
845 0.1677 0.8323 0.0000 
846 0.1692 0.8308 0.0000 
847 0.1686 0.8314 0.0000 
848 0.1673 0.8327 0.0000 
849 0.1657 0.8343 0.0000 
850 0.1658 0.8342 0.0000 
851 0.1666 0.8335 0.0000 
852 0.1664 0.8336 0.0000 
853 0.1648 0.8352 0.0000 
854 0.1644 0.8356 0.0000 
855 0.1658 0.8341 0.0000 
856 0.1666 0.8334 0.0000 
857 0.1667 0.8333 0.0000 
858 0.1663 0.8337 0.0000 
859 0.1656 0.8345 0.0000 
860 0.1668 0.8332 0.0000 
861 0.1674 0.8326 0.0000 
862 0.1671 0.8329 0.0000 
863 0.1676 0.8324 0.0000 
864 0.1674 0.8326 0.0000 
865 0.1688 0.8312 0.0000 
866 0.1700 0.8300 0.0000 
867 0.1702 0.8298 0.0000 
868 0.1694 0.8306 0.0000 
869 0.1704 0.8296 0.0000 
870 0.1706 0.8294 0.0000 
871 0.1711 0.8289 0.0000 
872 0.1726 0.8274 0.0000 
873 0.1726 0.8274 0.0000 
874 0.1725 0.8275 0.0000 
875 0.1743 0.8257 0.0000 
876 0.1752 0.8247 0.0000 
877 0.1769 0.8230 0.0000 
878 0.1799 0.8200 0.0000 
879 0.1814 0.8186 0.0000 
880 0.1803 0.8197 0.0000 
881 0.1797 0.8203 0.0000 
882 0.1796 0.8204 0.0000 
883 0.1783 0.8217 0.0000 
884 0.1794 0.8206 0.0000 
885 0.1800 0.8199 0.0000 
886 0.1782 0.8218 0.0000 
887 0.1789 0.8212 0.0000 
888 0.1786 0.8214 0.0000 
889 0.1767 0.8233 0.0000 
890 0.1769 0.8231 0.0000 
891 0.1776 0.8225 0.0000 
892 0.1781 0.8219 0.0000 
893 0.1789 0.8211 0.0000 
894 0.1785 0.8215 0.0000 
895 0.1776 0.8224 0.0000 
896 0.1790 0.8210 0.0000 
897 0.1789 0.8210 0.0000 
898 0.1793 0.8207 0.0000 
899 0.1797 0.8204 0.0000 
900 0.1803 0.8197 0.0000 
901 0.1811 0.8189 0.0000 
902 0.1809 0.8192 0.0000 
903 0.1828 0.8172 0.0000 
904 0.1837 0.8163 0.0000 
905 0.1843 0.8157 0.0000 
906 0.1843 0.8157 0.0000 
907 0.1852 0.8148 0.0000 
908 0.1883 0.8117 0.0000 
909 0.1871 0.8129 0.0000 
910 0.1889 0.8111 0.0000 
911 0.1883 0.8116 0.0000 
912 0.1900 0.8100 0.0000 
913 0.1871 0.8129 0.0000 
914 0.1877 0.8123 0.0000 
915 0.1860 0.8140 0.0000 
916 0.1878 0.8122 0.0000 
917 0.1873 0.8126 0.0000 
918 0.1872 0.8127 0.0000 
919 0.1887 0.8114 0.0000 
920 0.1886 0.8114 0.0000 
921 0.1877 0.8123 0.0000 
922 0.1863 0.8137 0.0000 
923 0.1858 0.8142 0.0000 
924 0.1860 0.8140 0.0000 
925 0.1873 0.8127 0.0000 
926 0.1857 0.8143 0.0000 
927 0.1863 0.8137 0.0000 
928 0.1865 0.8135 0.0000 
929 0.1885 0.8115 0.0000 
930 0.1903 0.8097 0.0000 
931 0.1910 0.8089 0.0000 
932 0.1898 0.8102 0.0000 
933 0.1902 0.8098 0.0000 
934 0.1898 0.8102 0.0000 
935 0.1874 0.8126 0.0000 
936 0.1872 0.8128 0.0000 
937 0.1861 0.8139 0.0000 
938 0.1860 0.8140 0.0000 
939 0.1842 0.8158 0.0000 
940 0.1836 0.8164 0.0000 
941 0.1814 0.8186 0.0000 
942 0.1825 0.8175 0.0000 
943 0.1823 0.8177 0.0000 
944 0.1812 0.8188 0.0000 
945 0.1823 0.8177 0.0000 
946 0.1798 0.8202 0.0000 
947 0.1801 0.8199 0.0000 
948 0.1802 0.8198 0.0000 
949 0.1807 0.8193 0.0000 
950 0.1814 0.8186 0.0000 
951 0.1799 0.8201 0.0000 
952 0.1802 0.8198 0.0000 
953 0.1815 0.8185 0.0000 
954 0.1799 0.8201 0.0000 
955 0.1784 0.8216 0.0000 
956 0.1782 0.8217 0.0000 
957 0.1773 0.8227 0.0000 
958 0.1776 0.8224 0.0000 
959 0.1787 0.8214 0.0000 
960 0.1764 0.8236 0.0000 
961 0.1771 0.8229 0.0000 
962 0.1768 0.8232 0.0000 
963 0.1783 0.8217 0.0000 
964 0.1795 0.8205 0.0000 
965 0.1784 0.8216 0.0000 
966 0.1793 0.8207 0.0000 
967 0.1803 0.8197 0.0000 
968 0.1815 0.8185 0.0000 
969 0.1802 0.8198 0.0000 
970 0.1806 0.8194 0.0000 
971 0.1807 0.8193 0.0000 
972 0.1802 0.8198 0.0000 
973 0.1796 0.8204 0.0000 
974 0.1787 0.8213 0.0000 
975 0.1797 0.8203 0.0000 
976 0.1804 0.8196 0.0000 
977 0.1816 0.8184 0.0000 
978 0.1819 0.8182 0.0000 
979 0.1820 0.8180 0.0000 
980 0.1817 0.8183 0.0000 
981 0.1811 0.8189 0.0000 
982 0.1813 0.8187 0.0000 
983 0.1815 0.8185 0.0000 
984 0.1818 0.8182 0.0000 
985 0.1819 0.8182 0.0000 
986 0.1832 0.8168 0.0000 
987 0.1843 0.8157 0.0000 
988 0.1844 0.8156 0.0000 
989 0.1842 0.8158 0.0000 
990 0.1842 0.8158 0.0000 
991 0.1854 0.8146 0.0000 
992 0.1849 0.8151 0.0000 
993 0.1843 0.8157 0.0000 
994 0.1853 0.8147 0.0000 
995 0.1871 0.8129 0.0000 
996 0.1872 0.8128 0.0000 
997 0.1899 0.8101 0.0000 
998 0.1898 0.8102 0.0000 
999 0.1907 0.8093 0.0000 
1000 0.1909 0.8091 0.0000 
1001 0.1915 0.8085 0.0000 
1002 0.1911 0.8089 0.0000 
1003 0.1903 0.8097 0.0000 
1004 0.1908 0.8092 0.0000 
1005 0.1895 0.8105 0.0000 
1006 0.1895 0.8105 0.0000 
1007 0.1878 0.8122 0.0000 
1008 0.1867 0.8133 0.0000 
1009 0.1857 0.8143 0.0000 
1010 0.1838 0.8162 0.0000 
1011 0.1840 0.8159 0.0000 
1012 0.1836 0.8164 0.0000 
1013 0.1832 0.8168 0.0000 
1014 0.1841 0.8159 0.0000 
1015 0.1860 0.8141 0.0000 
1016 0.1872 0.8128 0.0000 
1017 0.1860 0.8140 0.0000 
1018 0.1855 0.8145 0.0000 
1019 0.1859 0.8141 0.0000 
1020 0.1888 0.8112 0.0000 
1021 0.1874 0.8126 0.0000 
1022 0.1877 0.8124 0.0000 
1023 0.1879 0.8121 0.0000 
1024 0.1876 0.8124 0.0000 
1025 0.1867 0.8133 0.0000 
1026 0.1862 0.8138 0.0000 
1027 0.1864 0.8136 0.0000 
1028 0.1835 0.8165 0.0000 
1029 0.1838 0.8162 0.0000 
1030 0.1832 0.8168 0.0000 
1031 0.1844 0.8156 0.0000 
1032 0.1827 0.8174 0.0000 
1033 0.1825 0.8175 0.0000 
1034 0.1812 0.8188 0.0000 
1035 0.1812 0.8188 0.0000 
1036 0.1833 0.8167 0.0000 
1037 0.1840 0.8161 0.0000 
1038 0.1845 0.8155 0.0000 
1039 0.1856 0.8144 0.0000 
1040 0.1861 0.8139 0.0000 
1041 0.1862 0.8138 0.0000 
1042 0.1884 0.8116 0.0000 
1043 0.1893 0.8107 0.0000 
1044 0.1889 0.8111 0.0000 
1045 0.1891 0.8109 0.0000 
1046 0.1883 0.8116 0.0000 
1047 0.1870 0.8129 0.0000 
1048 0.1876 0.8124 0.0000 
1049 0.1885 0.8115 0.0000 
1050 0.1884 0.8116 0.0000 
1051 0.1869 0.8131 0.0000 
1052 0.1869 0.8131 0.0000 
1053 0.1857 0.8143 0.0000 
1054 0.1867 0.8133 0.0000 
1055 0.1858 0.8142 0.0000 
1056 0.1859 0.8141 0.0000 
1057 0.1848 0.8152 0.0000 
1058 0.1858 0.8142 0.0000 
1059 0.1862 0.8138 0.0000 
1060 0.1863 0.8137 0.0000 
1061 0.1869 0.8131 0.0000 
1062 0.1875 0.8125 0.0000 
1063 0.1858 0.8142 0.0000 
1064 0.1847 0.8153 0.0000 
1065 0.1840 0.8160 0.0000 
1066 0.1851 0.8149 0.0000 
1067 0.1862 0.8138 0.0000 
1068 0.1874 0.8126 0.0000 
1069 0.1882 0.8118 0.0000 
1070 0.1893 0.8107 0.0000 
1071 0.1888 0.8112 0.0000 
1072 0.1892 0.8108 0.0000 
1073 0.1897 0.8103 0.0000 
1074 0.1930 0.8070 0.0000 
1075 0.1926 0.8074 0.0000 
1076 0.1937 0.8063 0.0000 
1077 0.1953 0.8047 0.0000 
1078 0.1948 0.8052 0.0000 
1079 0.1939 0.8061 0.0000 
1080 0.1951 0.8049 0.0000 
1081 0.1962 0.8038 0.0000 
1082 0.1967 0.8033 0.0000 
1083 0.1964 0.8036 0.0000 
1084 0.1967 0.8033 0.0000 
1085 0.1979 0.8021 0.0000 
1086 0.1977 0.8023 0.0000 
1087 0.1968 0.8032 0.0000 
1088 0.1946 0.8054 0.0000 
1089 0.1961 0.8039 0.0000 
1090 0.1945 0.8055 0.0000 
1091 0.1929 0.8071 0.0000 
1092 0.1912 0.8088 0.0000 
1093 0.1920 0.8080 0.0000 
1094 0.1921 0.8079 0.0000 
1095 0.1908 0.8092 0.0000 
1096 0.1912 0.8088 0.0000 
1097 0.1901 0.8099 0.0000 
1098 0.1892 0.8108 0.0000 
1099 0.1917 0.8083 0.0000 
1100 0.1920 0.8080 0.0000 
1101 0.1922 0.8078 0.0000 
1102 0.1916 0.8084 0.0000 
1103 0.1921 0.8078 0.0000 
1104 0.1936 0.8064 0.0000 
1105 0.1951 0.8050 0.0000 
1106 0.1944 0.8056 0.0000 
1107 0.1954 0.8046 0.0000 
1108 0.1952 0.8048 0.0000 
1109 0.1957 0.8043 0.0000 
1110 0.1968 0.8032 0.0000 
1111 0.1980 0.8020 0.0000 
1112 0.1979 0.8021 0.0000 
1113 0.1987 0.8013 0.0000 
1114 0.1971 0.8029 0.0000 
1115 0.1982 0.8018 0.0000 
1116 0.1981 0.8019 0.0000 
1117 0.1978 0.8022 0.0000 
1118 0.1970 0.8030 0.0000 
1119 0.1980 0.8020 0.0000 
1120 0.1978 0.8022 0.0000 
1121 0.1986 0.8014 0.0000 
1122 0.2002 0.7998 0.0000 
1123 0.2012 0.7988 0.0000 
1124 0.2026 0.7974 0.0000 
1125 0.2037 0.7963 0.0000 
1126 0.2031 0.7970 0.0000 
1127 0.2037 0.7963 0.0000 
1128 0.2025 0.7975 0.0000 
1129 0.2066 0.7934 0.0000 
1130 0.2061 0.7938 0.0000 
1131 0.2072 0.7928 0.0000 
1132 0.2086 0.7914 0.0000 
1133 0.2087 0.7913 0.0000 
1134 0.2096 0.7904 0.0000 
1135 0.2096 0.7904 0.0000 
1136 0.2106 0.7894 0.0000 
1137 0.2120 0.7880 0.0000 
1138 0.2126 0.7874 0.0000 
1139 0.2132 0.7869 0.0000 
1140 0.2154 0.7846 0.0000 
1141 0.2149 0.7851 0.0000 
1142 0.2145 0.7855 0.0000 
1143 0.2147 0.7853 0.0000 
1144 0.2136 0.7864 0.0000 
1145 0.2133 0.7867 0.0000 
1146 0.2127 0.7873 0.0000 
1147 0.2099 0.7902 0.0000 
1148 0.2095 0.7905 0.0000 
1149 0.2085 0.7915 0.0000 
1150 0.2081 0.7919 0.0000 
1151 0.2082 0.7918 0.0000 
1152 0.2088 0.7912 0.0000 
1153 0.2094 0.7906 0.0000 
1154 0.2102 0.7899 0.0000 
1155 0.2118 0.7882 0.0000 
1156 0.2121 0.7879 0.0000 
1157 0.2135 0.7865 0.0000 
1158 0.2162 0.7837 0.0000 
1159 0.2167 0.7833 0.0000 
1160 0.2149 0.7851 0.0000 
1161 0.2164 0.7836 0.0000 
1162 0.2152 0.7848 0.0000 
1163 0.2160 0.7840 0.0000 
1164 0.2194 0.7806 0.0000 
1165 0.2205 0.7794 0.0000 
1166 0.2230 0.7770 0.0000 
1167 0.2233 0.7767 0.0000 
1168 0.2245 0.7754 0.0000 
1169 0.2244 0.7756 0.0000 
1170 0.2245 0.7755 0.0000 
1171 0.2248 0.7752 0.0000 
1172 0.2267 0.7733 0.0000 
1173 0.2266 0.7733 0.0000 
1174 0.2272 0.7728 0.0000 
1175 0.2278 0.7722 0.0000 
1176 0.2281 0.7719 0.0000 
1177 0.2281 0.7719 0.0000 
1178 0.2293 0.7707 0.0000 
1179 0.2306 0.7694 0.0000 
1180 0.2309 0.7691 0.0000 
1181 0.2324 0.7676 0.0000 
1182 0.2315 0.7685 0.0000 
1183 0.2322 0.7678 0.0000 
1184 0.2331 0.7670 0.0000 
1185 0.2326 0.7674 0.0000 
1186 0.2318 0.7682 0.0000 
1187 0.2340 0.7660 0.0000 
1188 0.2354 0.7646 0.0000 
1189 0.2351 0.7649 0.0000 
1190 0.2362 0.7638 0.0000 
1191 0.2363 0.7637 0.0000 
1192 0.2364 0.7636 0.0000 
1193 0.2355 0.7645 0.0000 
1194 0.2358 0.7642 0.0000 
1195 0.2363 0.7637 0.0000 
1196 0.2374 0.7625 0.0000 
1197 0.2352 0.7648 0.0000 
1198 0.2335 0.7665 0.0000 
1199 0.2355 0.7645 0.0000 
1200 0.2344 0.7655 0.0000 
1201 0.2346 0.7654 0.0000 
1202 0.2338 0.7662 0.0000 
1203 0.2318 0.7682 0.0000 
1204 0.2320 0.7680 0.0000 
1205 0.2305 0.7695 0.0000 
1206 0.2289 0.7711 0.0000 
1207 0.2297 0.7703 0.0000 
1208 0.2303 0.7696 0.0000 
1209 0.2305 0.7695 0.0000 
1210 0.2309 0.7691 0.0000 
1211 0.2297 0.7703 0.0000 
1212 0.2301 0.7700 0.0000 
1213 0.2308 0.7692 0.0000 
1214 0.2310 0.7690 0.0000 
1215 0.2301 0.7699 0.0000 
1216 0.2307 0.7693 0.0000 
1217 0.2311 0.7689 0.0000 
1218 0.2311 0.7689 0.0000 
1219 0.2312 0.7688 0.0000 
1220 0.2304 0.7696 0.0000 
1221 0.2282 0.7718 0.0000 
1222 0.2287 0.7713 0.0000 
1223 0.2284 0.7716 0.0000 
1224 0.2280 0.7720 0.0000 
1225 0.2295 0.7705 0.0000 
1226 0.2293 0.7707 0.0000 
1227 0.2289 0.7711 0.0000 
1228 0.2274 0.7726 0.0000 
1229 0.2280 0.7720 0.0000 
1230 0.2277 0.7723 0.0000 
1231 0.2263 0.7737 0.0000 
1232 0.2261 0.7739 0.0000 
1233 0.2253 0.7746 0.0000 
1234 0.2236 0.7764 0.0000 
1235 0.2247 0.7753 0.0000 
1236 0.2262 0.7738 0.0000 
1237 0.2263 0.7737 0.0000 
1238 0.2260 0.7740 0.0000 
1239 0.2268 0.7732 0.0000 
1240 0.2273 0.7728 0.0000 
1241 0.2285 0.7715 0.0000 
1242 0.2273 0.7727 0.0000 
1243 0.2296 0.7704 0.0000 
1244 0.2304 0.7696 0.0000 
1245 0.2303 0.7697 0.0000 
1246 0.2323 0.7677 0.0000 
1247 0.2319 0.7681 0.0000 
1248 0.2281 0.7720 0.0000 
1249 0.2290 0.7710 0.0000 
1250 0.2279 0.7721 0.0000 
1251 0.2286 0.7714 0.0000 
1252 0.2309 0.7691 0.0000 
1253 0.2307 0.7693 0.0000 
1254 0.2306 0.7694 0.0000 
1255 0.2319 0.7681 0.0000 
1256 0.2333 0.7668 0.0000 
1257 0.2329 0.7671 0.0000 
1258 0.2351 0.7649 0.0000 
1259 0.2358 0.7642 0.0000 
1260 0.2359 0.7641 0.0000 
1261 0.2359 0.7641 0.0000 
1262 0.2356 0.7644 0.0000 
1263 0.2368 0.7632 0.0000 
1264 0.2351 0.7650 0.0000 
1265 0.2354 0.7647 0.0000 
1266 0.2335 0.7665 0.0000 
1267 0.2338 0.7662 0.0000 
1268 0.2357 0.7643 0.0000 
1269 0.2339 0.7661 0.0000 
1270 0.2341 0.7660 0.0000 
1271 0.2340 0.7660 0.0000 
1272 0.2333 0.7667 0.0000 
1273 0.2347 0.7652 0.0000 
1274 0.2343 0.7657 0.0000 
1275 0.2347 0.7653 0.0000 
1276 0.2343 0.7658 0.0000 
1277 0.2329 0.7671 0.0000 
1278 0.2320 0.7680 0.0000 
1279 0.2320 0.7680 0.0000 
1280 0.2340 0.7660 0.0000 
1281 0.2331 0.7669 0.0000 
1282 0.2327 0.7673 0.0000 
1283 0.2312 0.7688 0.0000 
1284 0.2299 0.7701 0.0000 
1285 0.2301 0.7700 0.0000 
1286 0.2286 0.7714 0.0000 
1287 0.2276 0.7724 0.0000 
1288 0.2276 0.7723 0.0000 
1289 0.2266 0.7734 0.0000 
1290 0.2274 0.7726 0.0000 
1291 0.2274 0.7726 0.0000 
1292 0.2256 0.7744 0.0000 
1293 0.2262 0.7738 0.0000 
1294 0.2256 0.7744 0.0000 
1295 0.2250 0.7750 0.0000 
1296 0.2244 0.7756 0.0000 
1297 0.2267 0.7733 0.0000 
1298 0.2253 0.7747 0.0000 
1299 0.2267 0.7733 0.0000 
1300 0.2278 0.7722 0.0000 
1301 0.2271 0.7729 0.0000 
1302 0.2257 0.7743 0.0000 
1303 0.2282 0.7718 0.0000 
1304 0.2283 0.7717 0.0000 
1305 0.2272 0.7728 0.0000 
1306 0.2291 0.7710 0.0000 
1307 0.2301 0.7699 0.0000 
1308 0.2296 0.7704 0.0000 
1309 0.2305 0.7695 0.0000 
1310 0.2347 0.7653 0.0000 
1311 0.2336 0.7664 0.0000 
1312 0.2339 0.7661 0.0000 
1313 0.2350 0.7650 0.0000 
1314 0.2353 0.7647 0.0000 
1315 0.2371 0.7629 0.0000 
1316 0.2378 0.7622 0.0000 
1317 0.2384 0.7616 0.0000 
1318 0.2385 0.7615 0.0000 
1319 0.2394 0.7606 0.0000 
1320 0.2399 0.7601 0.0000 
1321 0.2411 0.7589 0.0000 
1322 0.2417 0.7583 0.0000 
1323 0.2426 0.7574 0.0000 
1324 0.2434 0.7565 0.0000 
1325 0.2432 0.7569 0.0000 
1326 0.2429 0.7571 0.0000 
1327 0.2429 0.7571 0.0000 
1328 0.2430 0.7570 0.0000 
1329 0.2417 0.7583 0.0000 
1330 0.2427 0.7573 0.0000 
1331 0.2407 0.7593 0.0000 
1332 0.2389 0.7611 0.0000 
1333 0.2401 0.7600 0.0000 
1334 0.2392 0.7608 0.0000 
1335 0.2386 0.7614 0.0000 
1336 0.2389 0.7611 0.0000 
1337 0.2388 0.7612 0.0000 
1338 0.2375 0.7625 0.0000 
1339 0.2364 0.7635 0.0000 
1340 0.2354 0.7645 0.0000 
1341 0.2336 0.7664 0.0000 
1342 0.2332 0.7668 0.0000 
1343 0.2340 0.7660 0.0000 
1344 0.2352 0.7648 0.0000 
1345 0.2356 0.7644 0.0000 
1346 0.2371 0.7629 0.0000 
1347 0.2387 0.7613 0.0000 
1348 0.2387 0.7613 0.0000 
1349 0.2384 0.7616 0.0000 
1350 0.2372 0.7628 0.0000 
1351 0.2372 0.7628 0.0000 
1352 0.2391 0.7610 0.0000 
1353 0.2394 0.7606 0.0000 
1354 0.2371 0.7629 0.0000 
1355 0.2379 0.7621 0.0000 
1356 0.2363 0.7637 0.0000 
1357 0.2364 0.7636 0.0000 
1358 0.2354 0.7646 0.0000 
1359 0.2348 0.7652 0.0000 
1360 0.2333 0.7667 0.0000 
1361 0.2333 0.7667 0.0000 
1362 0.2337 0.7663 0.0000 
1363 0.2345 0.7655 0.0000 
1364 0.2344 0.7655 0.0000 
1365 0.2325 0.7675 0.0000 
1366 0.2346 0.7654 0.0000 
1367 0.2351 0.7649 0.0000 
1368 0.2347 0.7653 0.0000 
1369 0.2359 0.7641 0.0000 
1370 0.2355 0.7645 0.0000 
1371 0.2361 0.7639 0.0000 
1372 0.2367 0.7633 0.0000 
1373 0.2367 0.7633 0.0000 
1374 0.2382 0.7619 0.0000 
1375 0.2344 0.7655 0.0000 
1376 0.2353 0.7647 0.0000 
1377 0.2360 0.7640 0.0000 
1378 0.2371 0.7629 0.0000 
1379 0.2369 0.7631 0.0000 
1380 0.2360 0.7640 0.0000 
1381 0.2347 0.7653 0.0000 
1382 0.2347 0.7653 0.0000 
1383 0.2353 0.7647 0.0000 
1384 0.2363 0.7637 0.0000 
1385 0.2369 0.7631 0.0000 
1386 0.2376 0.7624 0.0000 
1387 0.2392 0.7609 0.0000 
1388 0.2423 0.7577 0.0000 
1389 0.2420 0.7580 0.0000 
1390 0.2448 0.7552 0.0000 
1391 0.2449 0.7551 0.0000 
1392 0.2451 0.7549 0.0000 
1393 0.2455 0.7545 0.0000 
1394 0.2443 0.7557 0.0000 
1395 0.2444 0.7556 0.0000 
1396 0.2433 0.7567 0.0000 
1397 0.2436 0.7564 0.0000 
1398 0.2442 0.7558 0.0000 
1399 0.2445 0.7554 0.0000 
1400 0.2430 0.7570 0.0000 
1401 0.2439 0.7561 0.0000 
1402 0.2440 0.7560 0.0000 
1403 0.2457 0.7542 0.0000 
1404 0.2467 0.7533 0.0000 
1405 0.2476 0.7524 0.0000 
1406 0.2496 0.7504 0.0000 
1407 0.2500 0.7500 0.0000 
1408 0.2492 0.7508 0.0000 
1409 0.2493 0.7507 0.0000 
1410 0.2490 0.7510 0.0000 
1411 0.2497 0.7503 0.0000 
1412 0.2496 0.7504 0.0000 
1413 0.2493 0.7507 0.0000 
1414 0.2525 0.7475 0.0000 
1415 0.2535 0.7464 0.0000 
1416 0.2545 0.7455 0.0000 
1417 0.2562 0.7438 0.0000 
1418 0.2582 0.7418 0.0000 
1419 0.2574 0.7426 0.0000 
1420 0.2585 0.7415 0.0000 
1421 0.2581 0.7419 0.0000 
1422 0.2567 0.7433 0.0000 
1423 0.2559 0.7441 0.0000 
1424 0.2564 0.7437 0.0000 
1425 0.2542 0.7458 0.0000 
1426 0.2546 0.7453 0.0000 
1427 0.2551 0.7449 0.0000 
1428 0.2555 0.7446 0.0000 
1429 0.2548 0.7452 0.0000 
1430 0.2533 0.7467 0.0000 
1431 0.2531 0.7469 0.0000 
1432 0.2554 0.7446 0.0000 
1433 0.2545 0.7455 0.0000 
1434 0.2535 0.7466 0.0000 
1435 0.2505 0.7494 0.0000 
1436 0.2500 0.7500 0.0000 
1437 0.2509 0.7491 0.0000 
1438 0.2498 0.7502 0.0000 
1439 0.2500 0.7500 0.0000 
1440 0.2495 0.7504 0.0000 
1441 0.2504 0.7496 0.0000 
1442 0.2523 0.7477 0.0000 
1443 0.2498 0.7502 0.0000 
1444 0.2496 0.7504 0.0000 
1445 0.2518 0.7482 0.0000 
1446 0.2505 0.7494 0.0000 
1447 0.2517 0.7483 0.0000 
1448 0.2503 0.7497 0.0000 
1449 0.2499 0.7501 0.0000 
1450 0.2502 0.7498 0.0000 
1451 0.2490 0.7510 0.0000 
1452 0.2506 0.7494 0.0000 
1453 0.2514 0.7486 0.0000 
1454 0.2512 0.7488 0.0000 
1455 0.2527 0.7472 0.0000 
1456 0.2534 0.7466 0.0000 
1457 0.2532 0.7468 0.0000 
1458 0.2537 0.7463 0.0000 
1459 0.2550 0.7450 0.0000 
1460 0.2538 0.7462 0.0000 
1461 0.2544 0.7456 0.0000 
1462 0.2536 0.7463 0.0000 
1463 0.2557 0.7443 0.0000 
1464 0.2553 0.7447 0.0000 
1465 0.2536 0.7464 0.0000 
1466 0.2537 0.7462 0.0000 
1467 0.2535 0.7464 0.0000 
1468 0.2539 0.7461 0.0000 
1469 0.2517 0.7482 0.0000 
1470 0.2546 0.7454 0.0000 
1471 0.2547 0.7452 0.0000 
1472 0.2538 0.7462 0.0000 
1473 0.2549 0.7451 0.0000 
1474 0.2551 0.7449 0.0000 
1475 0.2548 0.7452 0.0000 
1476 0.2556 0.7444 0.0000 
1477 0.2564 0.7437 0.0000 
1478 0.2559 0.7441 0.0000 
1479 0.2551 0.7449 0.0000 
1480 0.2559 0.7441 0.0000 
1481 0.2566 0.7434 0.0000 
1482 0.2589 0.7411 0.0000 
1483 0.2586 0.7413 0.0000 
1484 0.2592 0.7408 0.0000 
1485 0.2591 0.7409 0.0000 
1486 0.2572 0.7428 0.0000 
1487 0.2585 0.7415 0.0000 
1488 0.2581 0.7419 0.0000 
1489 0.2583 0.7417 0.0000 
1490 0.2590 0.7410 0.0000 
1491 0.2574 0.7426 0.0000 
1492 0.2580 0.7420 0.0000 
1493 0.2577 0.7423 0.0000 
1494 0.2566 0.7434 0.0000 
1495 0.2564 0.7437 0.0000 
1496 0.2571 0.7429 0.0000 
1497 0.2568 0.7432 0.0000 
1498 0.2581 0.7419 0.0000 
1499 0.2594 0.7407 0.0000 
1500 0.2571 0.7429 0.0000 
1501 0.2586 0.7414 0.0000 
1502 0.2581 0.7419 0.0000 
1503 0.2570 0.7430 0.0000 
1504 0.2575 0.7425 0.0000 
1505 0.2566 0.7434 0.0000 
1506 0.2570 0.7430 0.0000 
1507 0.2569 0.7431 0.0000 
1508 0.2547 0.7453 0.0000 
1509 0.2534 0.7466 0.0000 
1510 0.2543 0.7457 0.0000 
1511 0.2528 0.7472 0.0000 
1512 0.2537 0.7463 0.0000 
1513 0.2530 0.7470 0.0000 
1514 0.2546 0.7453 0.0000 
1515 0.2566 0.7433 0.0000 
1516 0.2572 0.7428 0.0000 
1517 0.2561 0.7439 0.0000 
1518 0.2553 0.7447 0.0000 
1519 0.2549 0.7451 0.0000 
1520 0.2535 0.7465 0.0000 
1521 0.2538 0.7462 0.0000 
1522 0.2540 0.7460 0.0000 
1523 0.2522 0.7478 0.0000 
1524 0.2529 0.7471 0.0000 
1525 0.2521 0.7479 0.0000 
1526 0.2540 0.7460 0.0000 
1527 0.2535 0.7465 0.0000 
1528 0.2555 0.7446 0.0000 
1529 0.2534 0.7466 0.0000 
1530 0.2531 0.7469 0.0000 
1531 0.2535 0.7465 0.0000 
1532 0.2524 0.7476 0.0000 
1533 0.2524 0.7476 0.0000 
1534 0.2525 0.7475 0.0000 
1535 0.2541 0.7459 0.0000 
1536 0.2545 0.7455 0.0000 
1537 0.2554 0.7447 0.0000 
1538 0.2543 0.7457 0.0000 
1539 0.2559 0.7441 0.0000 
1540 0.2572 0.7428 0.0000 
1541 0.2567 0.7432 0.0000 
1542 0.2579 0.7421 0.0000 
1543 0.2578 0.7422 0.0000 
1544 0.2578 0.7422 0.0000 
1545 0.2569 0.7431 0.0000 
1546 0.2571 0.7429 0.0000 
1547 0.2556 0.7443 0.0000 
1548 0.2578 0.7422 0.0000 
1549 0.2587 0.7412 0.0000 
1550 0.2570 0.7430 0.0000 
1551 0.2584 0.7416 0.0000 
1552 0.2582 0.7418 0.0000 
1553 0.2578 0.7422 0.0000 
1554 0.2571 0.7429 0.0000 
1555 0.2591 0.7409 0.0000 
1556 0.2591 0.7409 0.0000 
1557 0.2597 0.7403 0.0000 
1558 0.2612 0.7388 0.0000 
1559 0.2631 0.7369 0.0000 
1560 0.2642 0.7358 0.0000 
1561 0.2626 0.7375 0.0000 
1562 0.2610 0.7390 0.0000 
1563 0.2626 0.7374 0.0000 
1564 0.2615 0.7385 0.0000 
1565 0.2614 0.7386 0.0000 
1566 0.2602 0.7398 0.0000 
1567 0.2599 0.7401 0.0000 
1568 0.2590 0.7410 0.0000 
1569 0.2575 0.7425 0.0000 
1570 0.2570 0.7430 0.0000 
1571 0.2581 0.7419 0.0000 
1572 0.2612 0.7388 0.0000 
1573 0.2623 0.7377 0.0000 
1574 0.2612 0.7388 0.0000 
1575 0.2612 0.7388 0.0000 
1576 0.2598 0.7402 0.0000 
1577 0.2587 0.7413 0.0000 
1578 0.2573 0.7427 0.0000 
1579 0.2566 0.7435 0.0000 
1580 0.2570 0.7430 0.0000 
1581 0.2584 0.7416 0.0000 
1582 0.2582 0.7418 0.0000 
1583 0.2556 0.7444 0.0000 
1584 0.2560 0.7440 0.0000 
1585 0.2572 0.7428 0.0000 
1586 0.2560 0.7440 0.0000 
1587 0.2546 0.7454 0.0000 
1588 0.2525 0.7475 0.0000 
1589 0.2534 0.7466 0.0000 
1590 0.2531 0.7469 0.0000 
1591 0.2531 0.7469 0.0000 
1592 0.2533 0.7467 0.0000 
1593 0.2547 0.7452 0.0000 
1594 0.2538 0.7462 0.0000 
1595 0.2547 0.7453 0.0000 
1596 0.2562 0.7438 0.0000 
1597 0.2571 0.7429 0.0000 
1598 0.2562 0.7438 0.0000 
1599 0.2563 0.7437 0.0000 
1600 0.2562 0.7438 0.0000 
1601 0.2590 0.7410 0.0000 
1602 0.2586 0.7415 0.0000 
1603 0.2601 0.7399 0.0000 
1604 0.2612 0.7388 0.0000 
1605 0.2605 0.7396 0.0000 
1606 0.2593 0.7407 0.0000 
1607 0.2585 0.7415 0.0000 
1608 0.2558 0.7442 0.0000 
1609 0.2580 0.7420 0.0000 
1610 0.2586 0.7414 0.0000 
1611 0.2614 0.7386 0.0000 
1612 0.2637 0.7363 0.0000 
1613 0.2616 0.7384 0.0000 
1614 0.2612 0.7388 0.0000 
1615 0.2612 0.7388 0.0000 
1616 0.2583 0.7417 0.0000 
1617 0.2599 0.7401 0.0000 
1618 0.2605 0.7395 0.0000 
1619 0.2576 0.7423 0.0000 
1620 0.2581 0.7419 0.0000 
1621 0.2589 0.7411 0.0000 
1622 0.2592 0.7408 0.0000 
1623 0.2587 0.7413 0.0000 
1624 0.2579 0.7421 0.0000 
1625 0.2580 0.7420 0.0000 
1626 0.2585 0.7415 0.0000 
1627 0.2590 0.7410 0.0000 
1628 0.2606 0.7394 0.0000 
1629 0.2595 0.7405 0.0000 
1630 0.2591 0.7409 0.0000 
1631 0.2591 0.7409 0.0000 
1632 0.2608 0.7392 0.0000 
1633 0.2604 0.7396 0.0000 
1634 0.2602 0.7398 0.0000 
1635 0.2628 0.7372 0.0000 
1636 0.2642 0.7358 0.0000 
1637 0.2664 0.7336 0.0000 
1638 0.2665 0.7335 0.0000 
1639 0.2659 0.7341 0.0000 
1640 0.2683 0.7317 0.0000 
1641 0.2710 0.7290 0.0000 
1642 0.2709 0.7291 0.0000 
1643 0.2723 0.7277 0.0000 
1644 0.2724 0.7276 0.0000 
1645 0.2739 0.7261 0.0000 
1646 0.2752 0.7248 0.0000 
1647 0.2758 0.7242 0.0000 
1648 0.2765 0.7235 0.0000 
1649 0.2765 0.7235 0.0000 
1650 0.2762 0.7238 0.0000 
1651 0.2754 0.7246 0.0000 
1652 0.2783 0.7217 0.0000 
1653 0.2760 0.7240 0.0000 
1654 0.2758 0.7242 0.0000 
1655 0.2732 0.7268 0.0000 
1656 0.2744 0.7256 0.0000 
1657 0.2752 0.7248 0.0000 
1658 0.2769 0.7231 0.0000 
1659 0.2767 0.7233 0.0000 
1660 0.2758 0.7242 0.0000 
1661 0.2731 0.7269 0.0000 
1662 0.2721 0.7279 0.0000 
1663 0.2735 0.7265 0.0000 
1664 0.2719 0.7281 0.0000 
1665 0.2737 0.7264 0.0000 
1666 0.2740 0.7260 0.0000 
1667 0.2725 0.7275 0.0000 
1668 0.2715 0.7285 0.0000 
1669 0.2741 0.7259 0.0000 
1670 0.2749 0.7251 0.0000 
1671 0.2727 0.7272 0.0000 
1672 0.2698 0.7302 0.0000 
1673 0.2688 0.7311 0.0000 
1674 0.2676 0.7325 0.0000 
1675 0.2684 0.7316 0.0000 
1676 0.2692 0.7308 0.0000 
1677 0.2698 0.7302 0.0000 
1678 0.2705 0.7295 0.0000 
1679 0.2666 0.7335 0.0000 
1680 0.2665 0.7335 0.0000 
1681 0.2669 0.7331 0.0000 
1682 0.2662 0.7338 0.0000 
1683 0.2657 0.7343 0.0000 
1684 0.2667 0.7332 0.0000 
1685 0.2670 0.7330 0.0000 
1686 0.2664 0.7336 0.0000 
1687 0.2675 0.7325 0.0000 
1688 0.2678 0.7321 0.0000 
1689 0.2691 0.7309 0.0000 
1690 0.2683 0.7317 0.0000 
1691 0.2699 0.7301 0.0000 
1692 0.2710 0.7290 0.0000 
1693 0.2713 0.7287 0.0000 
1694 0.2717 0.7284 0.0000 
1695 0.2700 0.7300 0.0000 
1696 0.2683 0.7317 0.0000 
1697 0.2651 0.7349 0.0000 
1698 0.2646 0.7355 0.0000 
1699 0.2585 0.7416 0.0000 
1700 0.2557 0.7443 0.0000 
1701 0.2554 0.7446 0.0000 
1702 0.2540 0.7460 0.0000 
1703 0.2536 0.7464 0.0000 
1704 0.2536 0.7463 0.0000 
1705 0.2514 0.7487 0.0000 
1706 0.2500 0.7500 0.0000 
1707 0.2508 0.7492 0.0000 
1708 0.2511 0.7489 0.0000 
1709 0.2500 0.7500 0.0000 
1710 0.2488 0.7512 0.0000 
1711 0.2474 0.7526 0.0000 
1712 0.2452 0.7548 0.0000 
1713 0.2455 0.7546 0.0000 
1714 0.2455 0.7545 0.0000 
1715 0.2441 0.7559 0.0000 
1716 0.2424 0.7577 0.0000 
1717 0.2439 0.7561 0.0000 
1718 0.2437 0.7563 0.0000 
1719 0.2450 0.7550 0.0000 
1720 0.2466 0.7534 0.0000 
1721 0.2473 0.7527 0.0000 
1722 0.2493 0.7507 0.0000 
1723 0.2504 0.7496 0.0000 
1724 0.2531 0.7469 0.0000 
1725 0.2530 0.7470 0.0000 
1726 0.2544 0.7456 0.0000 
1727 0.2530 0.7470 0.0000 
1728 0.2522 0.7478 0.0000 
1729 0.2543 0.7457 0.0000 
1730 0.2525 0.7476 0.0000 
1731 0.2549 0.7451 0.0000 
1732 0.2561 0.7439 0.0000 
1733 0.2566 0.7434 0.0000 
1734 0.2576 0.7424 0.0000 
1735 0.2577 0.7422 0.0000 
1736 0.2589 0.7411 0.0000 
1737 0.2586 0.7414 0.0000 
1738 0.2606 0.7394 0.0000 
1739 0.2614 0.7386 0.0000 
1740 0.2640 0.7360 0.0000 
1741 0.2647 0.7352 0.0000 
1742 0.2648 0.7351 0.0000 
1743 0.2643 0.7357 0.0000 
1744 0.2646 0.7354 0.0000 
1745 0.2643 0.7357 0.0000 
1746 0.2651 0.7349 0.0000 
1747 0.2666 0.7334 0.0000 
1748 0.2647 0.7352 0.0000 
1749 0.2651 0.7349 0.0000 
1750 0.2662 0.7338 0.0000 
1751 0.2661 0.7339 0.0000 
1752 0.2655 0.7345 0.0000 
1753 0.2651 0.7349 0.0000 
1754 0.2645 0.7355 0.0000 
1755 0.2638 0.7362 0.0000 
1756 0.2603 0.7397 0.0000 
1757 0.2615 0.7385 0.0000 
1758 0.2611 0.7389 0.0000 
1759 0.2640 0.7360 0.0000 
1760 0.2635 0.7366 0.0000 
1761 0.2652 0.7348 0.0000 
1762 0.2666 0.7334 0.0000 
1763 0.2672 0.7328 0.0000 
1764 0.2669 0.7331 0.0000 
1765 0.2667 0.7333 0.0000 
1766 0.2645 0.7355 0.0000 
1767 0.2642 0.7358 0.0000 
1768 0.2649 0.7351 0.0000 
1769 0.2641 0.7359 0.0000 
1770 0.2661 0.7339 0.0000 
1771 0.2687 0.7313 0.0000 
1772 0.2702 0.7298 0.0000 
1773 0.2726 0.7274 0.0000 
1774 0.2727 0.7273 0.0000 
1775 0.2738 0.7262 0.0000 
1776 0.2741 0.7259 0.0000 
1777 0.2768 0.7232 0.0000 
1778 0.2762 0.7238 0.0000 
1779 0.2764 0.7236 0.0000 
1780 0.2762 0.7238 0.0000 
1781 0.2758 0.7241 0.0000 
1782 0.2761 0.7239 0.0000 
1783 0.2762 0.7238 0.0000 
1784 0.2774 0.7226 0.0000 
1785 0.2790 0.7210 0.0000 
1786 0.2777 0.7224 0.0000 
1787 0.2763 0.7237 0.0000 
1788 0.2756 0.7244 0.0000 
1789 0.2763 0.7237 0.0000 
1790 0.2774 0.7226 0.0000 
1791 0.2778 0.7222 0.0000 
1792 0.2783 0.7217 0.0000 
1793 0.2807 0.7193 0.0000 
1794 0.2825 0.7175 0.0000 
1795 0.2828 0.7172 0.0000 
1796 0.2839 0.7161 0.0000 
1797 0.2820 0.7180 0.0000 
1798 0.2818 0.7181 0.0000 
1799 0.2822 0.7178 0.0000 
1800 0.2783 0.7217 0.0000 
1801 0.2778 0.7222 0.0000 
1802 0.2727 0.7273 0.0000 
1803 0.2720 0.7280 0.0000 
1804 0.2715 0.7285 0.0000 
1805 0.2707 0.7293 0.0000 
1806 0.2681 0.7319 0.0000 
1807 0.2690 0.7310 0.0000 
1808 0.2690 0.7310 0.0000 
1809 0.2690 0.7310 0.0000 
1810 0.2698 0.7301 0.0000 
1811 0.2678 0.7322 0.0000 
1812 0.2675 0.7325 0.0000 
1813 0.2669 0.7331 0.0000 
1814 0.2672 0.7328 0.0000 
1815 0.2661 0.7339 0.0000 
1816 0.2666 0.7334 0.0000 
1817 0.2661 0.7339 0.0000 
1818 0.2655 0.7345 0.0000 
1819 0.2662 0.7338 0.0000 
1820 0.2654 0.7346 0.0000 
1821 0.2657 0.7343 0.0000 
1822 0.2634 0.7366 0.0000 
1823 0.2638 0.7362 0.0000 
1824 0.2647 0.7352 0.0000 
1825 0.2651 0.7349 0.0000 
1826 0.2672 0.7328 0.0000 
1827 0.2669 0.7331 0.0000 
1828 0.2658 0.7342 0.0000 
1829 0.2653 0.7347 0.0000 
1830 0.2653 0.7347 0.0000 
1831 0.2650 0.7350 0.0000 
1832 0.2652 0.7348 0.0000 
1833 0.2637 0.7363 0.0000 
1834 0.2632 0.7368 0.0000 
1835 0.2612 0.7388 0.0000 
1836 0.2622 0.7378 0.0000 
1837 0.2576 0.7425 0.0000 
1838 0.2582 0.7418 0.0000 
1839 0.2576 0.7423 0.0000 
1840 0.2585 0.7415 0.0000 
1841 0.2588 0.7412 0.0000 
1842 0.2586 0.7414 0.0000 
1843 0.2596 0.7403 0.0000 
1844 0.2587 0.7413 0.0000 
1845 0.2555 0.7445 0.0000 
1846 0.2542 0.7458 0.0000 
1847 0.2538 0.7462 0.0000 
1848 0.2541 0.7459 0.0000 
1849 0.2550 0.7450 0.0000 
1850 0.2544 0.7456 0.0000 
1851 0.2561 0.7439 0.0000 
1852 0.2555 0.7445 0.0000 
1853 0.2547 0.7452 0.0000 
1854 0.2574 0.7426 0.0000 
1855 0.2590 0.7410 0.0000 
1856 0.2593 0.7407 0.0000 
1857 0.2596 0.7403 0.0000 
1858 0.2602 0.7398 0.0000 
1859 0.2592 0.7408 0.0000 
1860 0.2603 0.7397 0.0000 
1861 0.2596 0.7404 0.0000 
1862 0.2614 0.7386 0.0000 
1863 0.2624 0.7376 0.0000 
1864 0.2623 0.7377 0.0000 
1865 0.2628 0.7371 0.0000 
1866 0.2635 0.7365 0.0000 
1867 0.2649 0.7351 0.0000 
1868 0.2656 0.7344 0.0000 
1869 0.2650 0.7350 0.0000 
1870 0.2679 0.7321 0.0000 
1871 0.2690 0.7310 0.0000 
1872 0.2698 0.7302 0.0000 
1873 0.2684 0.7316 0.0000 
1874 0.2692 0.7308 0.0000 
1875 0.2674 0.7326 0.0000 
1876 0.2677 0.7323 0.0000 
1877 0.2679 0.7321 0.0000 
1878 0.2671 0.7329 0.0000 
1879 0.2677 0.7323 0.0000 
1880 0.2692 0.7308 0.0000 
1881 0.2693 0.7307 0.0000 
1882 0.2691 0.7309 0.0000 
1883 0.2681 0.7319 0.0000 
1884 0.2676 0.7323 0.0000 
1885 0.2701 0.7299 0.0000 
1886 0.2685 0.7315 0.0000 
1887 0.2689 0.7311 0.0000 
1888 0.2707 0.7292 0.0000 
1889 0.2712 0.7288 0.0000 
1890 0.2736 0.7264 0.0000 
1891 0.2746 0.7254 0.0000 
1892 0.2738 0.7262 0.0000 
1893 0.2723 0.7277 0.0000 
1894 0.2720 0.7280 0.0000 
1895 0.2736 0.7264 0.0000 
1896 0.2736 0.7265 0.0000 
1897 0.2733 0.7267 0.0000 
1898 0.2729 0.7271 0.0000 
1899 0.2732 0.7268 0.0000 
1900 0.2715 0.7286 0.0000 
1901 0.2738 0.7262 0.0000 
1902 0.2737 0.7263 0.0000 
1903 0.2746 0.7255 0.0000 
1904 0.2737 0.7263 0.0000 
1905 0.2740 0.7260 0.0000 
1906 0.2741 0.7259 0.0000 
1907 0.2732 0.7268 0.0000 
1908 0.2727 0.7274 0.0000 
1909 0.2727 0.7273 0.0000 
1910 0.2748 0.7252 0.0000 
1911 0.2753 0.7247 0.0000 
1912 0.2744 0.7256 0.0000 
1913 0.2734 0.7266 0.0000 
1914 0.2720 0.7280 0.0000 
1915 0.2716 0.7284 0.0000 
1916 0.2712 0.7288 0.0000 
1917 0.2719 0.7281 0.0000 
1918 0.2710 0.7290 0.0000 
1919 0.2717 0.7283 0.0000 
1920 0.2713 0.7287 0.0000 
1921 0.2728 0.7272 0.0000 
1922 0.2722 0.7278 0.0000 
1923 0.2746 0.7254 0.0000 
1924 0.2747 0.7253 0.0000 
1925 0.2749 0.7251 0.0000 
1926 0.2747 0.7253 0.0000 
1927 0.2755 0.7245 0.0000 
1928 0.2757 0.7242 0.0000 
1929 0.2759 0.7241 0.0000 
1930 0.2740 0.7260 0.0000 
1931 0.2738 0.7262 0.0000 
1932 0.2748 0.7252 0.0000 
1933 0.2746 0.7254 0.0000 
1934 0.2746 0.7254 0.0000 
1935 0.2729 0.7271 0.0000 
1936 0.2716 0.7285 0.0000 
1937 0.2715 0.7285 0.0000 
1938 0.2713 0.7287 0.0000 
1939 0.2732 0.7268 0.0000 
1940 0.2745 0.7255 0.0000 
1941 0.2763 0.7237 0.0000 
1942 0.2762 0.7238 0.0000 
1943 0.2773 0.7227 0.0000 
1944 0.2770 0.7230 0.0000 
1945 0.2776 0.7225 0.0000 
1946 0.2776 0.7224 0.0000 
1947 0.2778 0.7222 0.0000 
1948 0.2792 0.7208 0.0000 
1949 0.2782 0.7218 0.0000 
1950 0.2764 0.7236 0.0000 
1951 0.2755 0.7245 0.0000 
1952 0.2737 0.7263 0.0000 
1953 0.2751 0.7249 0.0000 
1954 0.2762 0.7238 0.0000 
1955 0.2757 0.7243 0.0000 
1956 0.2752 0.7248 0.0000 
1957 0.2758 0.7241 0.0000 
1958 0.2745 0.7256 0.0000 
1959 0.2758 0.7242 0.0000 
1960 0.2742 0.7258 0.0000 
1961 0.2747 0.7253 0.0000 
1962 0.2740 0.7260 0.0000 
1963 0.2746 0.7255 0.0000 
1964 0.2719 0.7281 0.0000 
1965 0.2725 0.7275 0.0000 
1966 0.2716 0.7284 0.0000 
1967 0.2702 0.7298 0.0000 
1968 0.2707 0.7294 0.0000 
1969 0.2708 0.7292 0.0000 
1970 0.2692 0.7308 0.0000 
1971 0.2681 0.7319 0.0000 
1972 0.2681 0.7319 0.0000 
1973 0.2685 0.7316 0.0000 
1974 0.2668 0.7332 0.0000 
1975 0.2661 0.7339 0.0000 
1976 0.2663 0.7337 0.0000 
1977 0.2659 0.7341 0.0000 
1978 0.2637 0.7362 0.0000 
1979 0.2655 0.7345 0.0000 
1980 0.2643 0.7357 0.0000 
1981 0.2633 0.7367 0.0000 
1982 0.2630 0.7370 0.0000 
1983 0.2640 0.7360 0.0000 
1984 0.2632 0.7368 0.0000 
1985 0.2622 0.7378 0.0000 
1986 0.2625 0.7376 0.0000 
1987 0.2613 0.7387 0.0000 
1988 0.2616 0.7384 0.0000 
1989 0.2631 0.7369 0.0000 
1990 0.2629 0.7371 0.0000 
1991 0.2621 0.7379 0.0000 
1992 0.2629 0.7371 0.0000 
1993 0.2636 0.7363 0.0000 
1994 0.2629 0.7371 0.0000 
1995 0.2630 0.7370 0.0000 
1996 0.2657 0.7343 0.0000 
1997 0.2665 0.7335 0.0000 
1998 0.2658 0.7342 0.0000 
1999 0.2652 0.7348 0.0000 
