0 0.5007 0.4994 0.0000 
1 0.3177 0.6823 0.0000 
2 0.1932 0.8068 0.0000 
3 0.1174 0.8826 0.0000 
4 0.0759 0.9242 0.0000 
5 0.0542 0.9457 0.0000 
6 0.0418 0.9583 0.0000 
7 0.0350 0.9650 0.0000 
8 0.0312 0.9688 0.0000 
9 0.0295 0.9705 0.0000 
10 0.0291 0.9709 0.0000 
11 0.0278 0.9722 0.0000 
12 0.0280 0.9720 0.0000 
13 0.0278 0.9721 0.0000 
14 0.0277 0.9724 0.0000 
15 0.0277 0.9723 0.0000 
16 0.0275 0.9725 0.0000 
17 0.0280 0.9720 0.0000 
18 0.0284 0.9717 0.0000 
19 0.0282 0.9718 0.0000 
20 0.0286 0.9714 0.0000 
21 0.0289 0.9711 0.0000 
22 0.0291 0.9709 0.0000 
23 0.0295 0.9705 0.0000 
24 0.0304 0.9696 0.0000 
25 0.0316 0.9685 0.0000 
26 0.0324 0.9676 0.0000 
27 0.0326 0.9674 0.0000 
28 0.0328 0.9672 0.0000 
29 0.0334 0.9666 0.0000 
30 0.0323 0.9677 0.0000 
31 0.0328 0.9671 0.0000 
32 0.0331 0.9669 0.0000 
33 0.0327 0.9673 0.0000 
34 0.0320 0.9680 0.0000 
35 0.0320 0.9680 0.0000 
36 0.0323 0.9677 0.0000 
37 0.0333 0.9667 0.0000 
38 0.0336 0.9665 0.0000 
39 0.0334 0.9666 0.0000 
40 0.0333 0.9667 0.0000 
41 0.0336 0.9664 0.0000 
42 0.0335 0.9666 0.0000 
43 0.0328 0.9672 0.0000 
44 0.0333 0.9667 0.0000 
45 0.0336 0.9665 0.0000 
46 0.0335 0.9665 0.0000 
47 0.0345 0.9655 0.0000 
48 0.0343 0.9657 0.0000 
49 0.0348 0.9653 0.0000 
50 0.0347 0.9653 0.0000 
51 0.0353 0.9647 0.0000 
52 0.0360 0.9639 0.0000 
53 0.0358 0.9641 0.0000 
54 0.0372 0.9628 0.0000 
55 0.0383 0.9617 0.0000 
56 0.0397 0.9603 0.0000 
57 0.0406 0.9594 0.0000 
58 0.0411 0.9589 0.0000 
59 0.0419 0.9581 0.0000 
60 0.0433 0.9567 0.0000 
61 0.0438 0.9562 0.0000 
62 0.0431 0.9569 0.0000 
63 0.0432 0.9568 0.0000 
64 0.0439 0.9561 0.0000 
65 0.0435 0.9565 0.0000 
66 0.0429 0.9571 0.0000 
67 0.0435 0.9565 0.0000 
68 0.0440 0.9560 0.0000 
69 0.0447 0.9553 0.0000 
70 0.0457 0.9544 0.0000 
71 0.0463 0.9537 0.0000 
72 0.0468 0.9532 0.0000 
73 0.0473 0.9527 0.0000 
74 0.0481 0.9519 0.0000 
75 0.0485 0.9515 0.0000 
76 0.0488 0.9512 0.0000 
77 0.0495 0.9505 0.0000 
78 0.0492 0.9508 0.0000 
79 0.0497 0.9503 0.0000 
80 0.0498 0.9502 0.0000 
81 0.0504 0.9496 0.0000 
82 0.0507 0.9493 0.0000 
83 0.0514 0.9486 0.0000 
84 0.0512 0.9488 0.0000 
85 0.0499 0.9501 0.0000 
86 0.0503 0.9497 0.0000 
87 0.0510 0.9489 0.0000 
88 0.0515 0.9485 0.0000 
89 0.0513 0.9487 0.0000 
90 0.0523 0.9477 0.0000 
91 0.0524 0.9476 0.0000 
92 0.0517 0.9483 0.0000 
93 0.0522 0.9478 0.0000 
94 0.0517 0.9484 0.0000 
95 0.0526 0.9474 0.0000 
96 0.0527 0.9473 0.0000 
97 0.0537 0.9463 0.0000 
98 0.0537 0.9463 0.0000 
99 0.0539 0.9461 0.0000 
100 0.0546 0.9454 0.0000 
101 0.0546 0.9454 0.0000 
102 0.0550 0.9450 0.0000 
103 0.0540 0.9460 0.0000 
104 0.0542 0.9458 0.0000 
105 0.0546 0.9454 0.0000 
106 0.0547 0.9453 0.0000 
107 0.0541 0.9459 0.0000 
108 0.0555 0.9445 0.0000 
109 0.0554 0.9446 0.0000 
110 0.0556 0.9444 0.0000 
111 0.0556 0.9444 0.0000 
112 0.0559 0.9441 0.0000 
113 0.0552 0.9448 0.0000 
114 0.0545 0.9455 0.0000 
115 0.0544 0.9456 0.0000 
116 0.0546 0.9454 0.0000 
117 0.0549 0.9452 0.0000 
118 0.0557 0.9443 0.0000 
119 0.0568 0.9432 0.0000 
120 0.0575 0.9425 0.0000 
121 0.0590 0.9410 0.0000 
122 0.0588 0.9412 0.0000 
123 0.0594 0.9406 0.0000 
124 0.0587 0.9413 0.0000 
125 0.0593 0.9407 0.0000 
126 0.0592 0.9408 0.0000 
127 0.0591 0.9409 0.0000 
128 0.0598 0.9402 0.0000 
129 0.0590 0.9409 0.0000 
130 0.0588 0.9412 0.0000 
131 0.0599 0.9401 0.0000 
132 0.0584 0.9416 0.0000 
133 0.0578 0.9422 0.0000 
134 0.0566 0.9434 0.0000 
135 0.0557 0.9443 0.0000 
136 0.0543 0.9457 0.0000 
137 0.0543 0.9457 0.0000 
138 0.0542 0.9458 0.0000 
139 0.0540 0.9460 0.0000 
140 0.0550 0.9450 0.0000 
141 0.0549 0.9450 0.0000 
142 0.0551 0.9449 0.0000 
143 0.0559 0.9441 0.0000 
144 0.0566 0.9434 0.0000 
145 0.0574 0.9426 0.0000 
146 0.0575 0.9425 0.0000 
147 0.0585 0.9415 0.0000 
148 0.0593 0.9407 0.0000 
149 0.0605 0.9395 0.0000 
150 0.0602 0.9398 0.0000 
151 0.0612 0.9387 0.0000 
152 0.0631 0.9368 0.0000 
153 0.0638 0.9362 0.0000 
154 0.0641 0.9359 0.0000 
155 0.0643 0.9357 0.0000 
156 0.0655 0.9345 0.0000 
157 0.0656 0.9344 0.0000 
158 0.0668 0.9332 0.0000 
159 0.0657 0.9343 0.0000 
160 0.0662 0.9338 0.0000 
161 0.0662 0.9338 0.0000 
162 0.0660 0.9339 0.0000 
163 0.0664 0.9336 0.0000 
164 0.0668 0.9332 0.0000 
165 0.0667 0.9333 0.0000 
166 0.0662 0.9338 0.0000 
167 0.0670 0.9330 0.0000 
168 0.0665 0.9335 0.0000 
169 0.0670 0.9330 0.0000 
170 0.0669 0.9332 0.0000 
171 0.0671 0.9329 0.0000 
172 0.0667 0.9333 0.0000 
173 0.0671 0.9329 0.0000 
174 0.0667 0.9333 0.0000 
175 0.0675 0.9325 0.0000 
176 0.0680 0.9320 0.0000 
177 0.0674 0.9325 0.0000 
178 0.0677 0.9323 0.0000 
179 0.0675 0.9325 0.0000 
180 0.0663 0.9337 0.0000 
181 0.0669 0.9331 0.0000 
182 0.0669 0.9331 0.0000 
183 0.0678 0.9322 0.0000 
184 0.0685 0.9315 0.0000 
185 0.0683 0.9317 0.0000 
186 0.0693 0.9307 0.0000 
187 0.0704 0.9296 0.0000 
188 0.0701 0.9299 0.0000 
189 0.0705 0.9295 0.0000 
190 0.0708 0.9292 0.0000 
191 0.0697 0.9303 0.0000 
192 0.0706 0.9294 0.0000 
193 0.0697 0.9303 0.0000 
194 0.0696 0.9304 0.0000 
195 0.0698 0.9302 0.0000 
196 0.0698 0.9302 0.0000 
197 0.0703 0.9296 0.0000 
198 0.0689 0.9311 0.0000 
199 0.0703 0.9297 0.0000 
200 0.0718 0.9282 0.0000 
201 0.0722 0.9278 0.0000 
202 0.0723 0.9277 0.0000 
203 0.0728 0.9272 0.0000 
204 0.0722 0.9278 0.0000 
205 0.0716 0.9284 0.0000 
206 0.0729 0.9271 0.0000 
207 0.0724 0.9276 0.0000 
208 0.0725 0.9275 0.0000 
209 0.0723 0.9276 0.0000 
210 0.0726 0.9274 0.0000 
211 0.0727 0.9273 0.0000 
212 0.0721 0.9279 0.0000 
213 0.0720 0.9280 0.0000 
214 0.0728 0.9272 0.0000 
215 0.0738 0.9262 0.0000 
216 0.0734 0.9266 0.0000 
217 0.0735 0.9265 0.0000 
218 0.0740 0.9260 0.0000 
219 0.0739 0.9261 0.0000 
220 0.0736 0.9264 0.0000 
221 0.0743 0.9257 0.0000 
222 0.0749 0.9251 0.0000 
223 0.0747 0.9253 0.0000 
224 0.0758 0.9242 0.0000 
225 0.0765 0.9235 0.0000 
226 0.0768 0.9232 0.0000 
227 0.0767 0.9233 0.0000 
228 0.0769 0.9232 0.0000 
229 0.0764 0.9236 0.0000 
230 0.0764 0.9236 0.0000 
231 0.0761 0.9240 0.0000 
232 0.0754 0.9246 0.0000 
233 0.0758 0.9242 0.0000 
234 0.0751 0.9249 0.0000 
235 0.0753 0.9247 0.0000 
236 0.0756 0.9244 0.0000 
237 0.0757 0.9243 0.0000 
238 0.0766 0.9234 0.0000 
239 0.0757 0.9243 0.0000 
240 0.0756 0.9244 0.0000 
241 0.0757 0.9243 0.0000 
242 0.0758 0.9242 0.0000 
243 0.0761 0.9239 0.0000 
244 0.0752 0.9248 0.0000 
245 0.0751 0.9249 0.0000 
246 0.0762 0.9238 0.0000 
247 0.0760 0.9240 0.0000 
248 0.0747 0.9253 0.0000 
249 0.0750 0.9250 0.0000 
250 0.0733 0.9267 0.0000 
251 0.0754 0.9246 0.0000 
252 0.0760 0.9241 0.0000 
253 0.0749 0.9251 0.0000 
254 0.0742 0.9258 0.0000 
255 0.0756 0.9244 0.0000 
256 0.0758 0.9242 0.0000 
257 0.0757 0.9243 0.0000 
258 0.0765 0.9235 0.0000 
259 0.0769 0.9231 0.0000 
260 0.0775 0.9225 0.0000 
261 0.0767 0.9233 0.0000 
262 0.0770 0.9230 0.0000 
263 0.0777 0.9223 0.0000 
264 0.0776 0.9224 0.0000 
265 0.0780 0.9220 0.0000 
266 0.0769 0.9231 0.0000 
267 0.0770 0.9230 0.0000 
268 0.0780 0.9220 0.0000 
269 0.0793 0.9207 0.0000 
270 0.0799 0.9201 0.0000 
271 0.0801 0.9199 0.0000 
272 0.0802 0.9198 0.0000 
273 0.0800 0.9200 0.0000 
274 0.0808 0.9193 0.0000 
275 0.0802 0.9198 0.0000 
276 0.0801 0.9199 0.0000 
277 0.0797 0.9203 0.0000 
278 0.0781 0.9219 0.0000 
279 0.0783 0.9217 0.0000 
280 0.0783 0.9217 0.0000 
281 0.0786 0.9214 0.0000 
282 0.0780 0.9220 0.0000 
283 0.0782 0.9218 0.0000 
284 0.0774 0.9226 0.0000 
285 0.0780 0.9220 0.0000 
286 0.0774 0.9226 0.0000 
287 0.0772 0.9228 0.0000 
288 0.0768 0.9232 0.0000 
289 0.0774 0.9226 0.0000 
290 0.0768 0.9232 0.0000 
291 0.0769 0.9232 0.0000 
292 0.0784 0.9216 0.0000 
293 0.0775 0.9225 0.0000 
294 0.0776 0.9224 0.0000 
295 0.0765 0.9235 0.0000 
296 0.0767 0.9233 0.0000 
297 0.0772 0.9228 0.0000 
298 0.0765 0.9235 0.0000 
299 0.0764 0.9236 0.0000 
300 0.0751 0.9249 0.0000 
301 0.0748 0.9252 0.0000 
302 0.0751 0.9249 0.0000 
303 0.0751 0.9250 0.0000 
304 0.0749 0.9251 0.0000 
305 0.0747 0.9253 0.0000 
306 0.0744 0.9256 0.0000 
307 0.0747 0.9253 0.0000 
308 0.0756 0.9244 0.0000 
309 0.0775 0.9225 0.0000 
310 0.0784 0.9216 0.0000 
311 0.0785 0.9215 0.0000 
312 0.0786 0.9214 0.0000 
313 0.0794 0.9206 0.0000 
314 0.0790 0.9210 0.0000 
315 0.0788 0.9212 0.0000 
316 0.0791 0.9209 0.0000 
317 0.0773 0.9227 0.0000 
318 0.0785 0.9215 0.0000 
319 0.0785 0.9215 0.0000 
320 0.0776 0.9224 0.0000 
321 0.0778 0.9222 0.0000 
322 0.0779 0.9221 0.0000 
323 0.0788 0.9213 0.0000 
324 0.0786 0.9214 0.0000 
325 0.0797 0.9203 0.0000 
326 0.0787 0.9213 0.0000 
327 0.0796 0.9204 0.0000 
328 0.0796 0.9204 0.0000 
329 0.0796 0.9204 0.0000 
330 0.0805 0.9195 0.0000 
331 0.0809 0.9191 0.0000 
332 0.0823 0.9177 0.0000 
333 0.0828 0.9172 0.0000 
334 0.0834 0.9166 0.0000 
335 0.0848 0.9152 0.0000 
336 0.0848 0.9152 0.0000 
337 0.0851 0.9150 0.0000 
338 0.0840 0.9160 0.0000 
339 0.0843 0.9157 0.0000 
340 0.0835 0.9165 0.0000 
341 0.0843 0.9157 0.0000 
342 0.0846 0.9154 0.0000 
343 0.0844 0.9156 0.0000 
344 0.0838 0.9162 0.0000 
345 0.0848 0.9152 0.0000 
346 0.0853 0.9147 0.0000 
347 0.0861 0.9139 0.0000 
348 0.0852 0.9149 0.0000 
349 0.0852 0.9149 0.0000 
350 0.0847 0.9153 0.0000 
351 0.0842 0.9158 0.0000 
352 0.0843 0.9157 0.0000 
353 0.0843 0.9156 0.0000 
354 0.0844 0.9156 0.0000 
355 0.0848 0.9152 0.0000 
356 0.0854 0.9145 0.0000 
357 0.0861 0.9139 0.0000 
358 0.0869 0.9131 0.0000 
359 0.0879 0.9121 0.0000 
360 0.0877 0.9123 0.0000 
361 0.0894 0.9106 0.0000 
362 0.0900 0.9100 0.0000 
363 0.0903 0.9096 0.0000 
364 0.0903 0.9097 0.0000 
365 0.0915 0.9085 0.0000 
366 0.0919 0.9081 0.0000 
367 0.0902 0.9097 0.0000 
368 0.0902 0.9097 0.0000 
369 0.0899 0.9101 0.0000 
370 0.0902 0.9097 0.0000 
371 0.0910 0.9090 0.0000 
372 0.0912 0.9088 0.0000 
373 0.0901 0.9099 0.0000 
374 0.0911 0.9089 0.0000 
375 0.0906 0.9094 0.0000 
376 0.0912 0.9087 0.0000 
377 0.0915 0.9085 0.0000 
378 0.0917 0.9083 0.0000 
379 0.0903 0.9097 0.0000 
380 0.0915 0.9085 0.0000 
381 0.0915 0.9085 0.0000 
382 0.0906 0.9094 0.0000 
383 0.0896 0.9104 0.0000 
384 0.0899 0.9101 0.0000 
385 0.0891 0.9109 0.0000 
386 0.0897 0.9103 0.0000 
387 0.0891 0.9109 0.0000 
388 0.0894 0.9106 0.0000 
389 0.0887 0.9113 0.0000 
390 0.0893 0.9107 0.0000 
391 0.0886 0.9114 0.0000 
392 0.0891 0.9109 0.0000 
393 0.0880 0.9120 0.0000 
394 0.0890 0.9110 0.0000 
395 0.0896 0.9104 0.0000 
396 0.0891 0.9109 0.0000 
397 0.0900 0.9100 0.0000 
398 0.0905 0.9095 0.0000 
399 0.0911 0.9089 0.0000 
400 0.0909 0.9091 0.0000 
401 0.0907 0.9093 0.0000 
402 0.0918 0.9082 0.0000 
403 0.0920 0.9080 0.0000 
404 0.0920 0.9080 0.0000 
405 0.0927 0.9073 0.0000 
406 0.0944 0.9056 0.0000 
407 0.0956 0.9044 0.0000 
408 0.0954 0.9046 0.0000 
409 0.0949 0.9051 0.0000 
410 0.0945 0.9055 0.0000 
411 0.0935 0.9064 0.0000 
412 0.0926 0.9074 0.0000 
413 0.0919 0.9081 0.0000 
414 0.0896 0.9104 0.0000 
415 0.0901 0.9100 0.0000 
416 0.0911 0.9089 0.0000 
417 0.0912 0.9088 0.0000 
418 0.0924 0.9076 0.0000 
419 0.0928 0.9072 0.0000 
420 0.0941 0.9059 0.0000 
421 0.0944 0.9056 0.0000 
422 0.0954 0.9046 0.0000 
423 0.0947 0.9053 0.0000 
424 0.0955 0.9045 0.0000 
425 0.0946 0.9054 0.0000 
426 0.0953 0.9047 0.0000 
427 0.0963 0.9037 0.0000 
428 0.0972 0.9028 0.0000 
429 0.0970 0.9030 0.0000 
430 0.0963 0.9037 0.0000 
431 0.0963 0.9037 0.0000 
432 0.0960 0.9040 0.0000 
433 0.0969 0.9031 0.0000 
434 0.0967 0.9033 0.0000 
435 0.0978 0.9022 0.0000 
436 0.0962 0.9038 0.0000 
437 0.0957 0.9043 0.0000 
438 0.0956 0.9044 0.0000 
439 0.0972 0.9028 0.0000 
440 0.0970 0.9030 0.0000 
441 0.0961 0.9039 0.0000 
442 0.0958 0.9042 0.0000 
443 0.0946 0.9054 0.0000 
444 0.0958 0.9042 0.0000 
445 0.0963 0.9038 0.0000 
446 0.0965 0.9034 0.0000 
447 0.0979 0.9021 0.0000 
448 0.0973 0.9028 0.0000 
449 0.0977 0.9023 0.0000 
450 0.0972 0.9028 0.0000 
451 0.0985 0.9015 0.0000 
452 0.1007 0.8993 0.0000 
453 0.0998 0.9002 0.0000 
454 0.0994 0.9006 0.0000 
455 0.1004 0.8996 0.0000 
456 0.0999 0.9001 0.0000 
457 0.1008 0.8992 0.0000 
458 0.1015 0.8985 0.0000 
459 0.1002 0.8998 0.0000 
460 0.0999 0.9001 0.0000 
461 0.0985 0.9015 0.0000 
462 0.0976 0.9024 0.0000 
463 0.0969 0.9031 0.0000 
464 0.0983 0.9017 0.0000 
465 0.0972 0.9028 0.0000 
466 0.0985 0.9014 0.0000 
467 0.0980 0.9020 0.0000 
468 0.0974 0.9025 0.0000 
469 0.0985 0.9015 0.0000 
470 0.1006 0.8994 0.0000 
471 0.1002 0.8998 0.0000 
472 0.1009 0.8991 0.0000 
473 0.1018 0.8982 0.0000 
474 0.1001 0.8999 0.0000 
475 0.1007 0.8993 0.0000 
476 0.0996 0.9004 0.0000 
477 0.1006 0.8994 0.0000 
478 0.1003 0.8997 0.0000 
479 0.1004 0.8996 0.0000 
480 0.1005 0.8995 0.0000 
481 0.1002 0.8998 0.0000 
482 0.0998 0.9002 0.0000 
483 0.0985 0.9014 0.0000 
484 0.0988 0.9012 0.0000 
485 0.0987 0.9013 0.0000 
486 0.0996 0.9004 0.0000 
487 0.0995 0.9005 0.0000 
488 0.0992 0.9009 0.0000 
489 0.0993 0.9007 0.0000 
490 0.0990 0.9010 0.0000 
491 0.1000 0.9000 0.0000 
492 0.1000 0.9000 0.0000 
493 0.0996 0.9004 0.0000 
494 0.1008 0.8992 0.0000 
495 0.1013 0.8988 0.0000 
496 0.1028 0.8972 0.0000 
497 0.1027 0.8973 0.0000 
498 0.1036 0.8964 0.0000 
499 0.1024 0.8976 0.0000 
500 0.1027 0.8973 0.0000 
501 0.1026 0.8974 0.0000 
502 0.1014 0.8986 0.0000 
503 0.1021 0.8979 0.0000 
504 0.1014 0.8986 0.0000 
505 0.0998 0.9002 0.0000 
506 0.1007 0.8993 0.0000 
507 0.0992 0.9008 0.0000 
508 0.0997 0.9003 0.0000 
509 0.0989 0.9011 0.0000 
510 0.0994 0.9006 0.0000 
511 0.1013 0.8987 0.0000 
512 0.1016 0.8984 0.0000 
513 0.1016 0.8984 0.0000 
514 0.1002 0.8998 0.0000 
515 0.0988 0.9012 0.0000 
516 0.0988 0.9012 0.0000 
517 0.0985 0.9015 0.0000 
518 0.0970 0.9030 0.0000 
519 0.0968 0.9032 0.0000 
520 0.0945 0.9055 0.0000 
521 0.0950 0.9050 0.0000 
522 0.0950 0.9050 0.0000 
523 0.0941 0.9059 0.0000 
524 0.0931 0.9069 0.0000 
525 0.0933 0.9067 0.0000 
526 0.0940 0.9060 0.0000 
527 0.0940 0.9060 0.0000 
528 0.0946 0.9053 0.0000 
529 0.0939 0.9061 0.0000 
530 0.0934 0.9066 0.0000 
531 0.0943 0.9057 0.0000 
532 0.0938 0.9062 0.0000 
533 0.0935 0.9065 0.0000 
534 0.0927 0.9073 0.0000 
535 0.0931 0.9069 0.0000 
536 0.0942 0.9058 0.0000 
537 0.0947 0.9053 0.0000 
538 0.0957 0.9043 0.0000 
539 0.0963 0.9037 0.0000 
540 0.0969 0.9031 0.0000 
541 0.0972 0.9028 0.0000 
542 0.0980 0.9020 0.0000 
543 0.0982 0.9018 0.0000 
544 0.0980 0.9020 0.0000 
545 0.0998 0.9002 0.0000 
546 0.1006 0.8994 0.0000 
547 0.1008 0.8992 0.0000 
548 0.1000 0.9000 0.0000 
549 0.1003 0.8998 0.0000 
550 0.0993 0.9007 0.0000 
551 0.0995 0.9005 0.0000 
552 0.0988 0.9012 0.0000 
553 0.0994 0.9005 0.0000 
554 0.0993 0.9008 0.0000 
555 0.1002 0.8998 0.0000 
556 0.0990 0.9010 0.0000 
557 0.0985 0.9014 0.0000 
558 0.0978 0.9022 0.0000 
559 0.0987 0.9013 0.0000 
560 0.0980 0.9020 0.0000 
561 0.0976 0.9024 0.0000 
562 0.0971 0.9029 0.0000 
563 0.0986 0.9014 0.0000 
564 0.0994 0.9006 0.0000 
565 0.0992 0.9008 0.0000 
566 0.0989 0.9011 0.0000 
567 0.0994 0.9006 0.0000 
568 0.1003 0.8997 0.0000 
569 0.1005 0.8995 0.0000 
570 0.1003 0.8996 0.0000 
571 0.1010 0.8990 0.0000 
572 0.1006 0.8994 0.0000 
573 0.1011 0.8989 0.0000 
574 0.1013 0.8986 0.0000 
575 0.1015 0.8985 0.0000 
576 0.1022 0.8978 0.0000 
577 0.1025 0.8975 0.0000 
578 0.1015 0.8985 0.0000 
579 0.1012 0.8988 0.0000 
580 0.1020 0.8980 0.0000 
581 0.1024 0.8976 0.0000 
582 0.1018 0.8982 0.0000 
583 0.1024 0.8976 0.0000 
584 0.1022 0.8978 0.0000 
585 0.1011 0.8989 0.0000 
586 0.0999 0.9001 0.0000 
587 0.0994 0.9006 0.0000 
588 0.1004 0.8996 0.0000 
589 0.1008 0.8992 0.0000 
590 0.1004 0.8996 0.0000 
591 0.1015 0.8985 0.0000 
592 0.1023 0.8976 0.0000 
593 0.1024 0.8976 0.0000 
594 0.1030 0.8970 0.0000 
595 0.1037 0.8963 0.0000 
596 0.1045 0.8955 0.0000 
597 0.1036 0.8964 0.0000 
598 0.1047 0.8953 0.0000 
599 0.1051 0.8949 0.0000 
600 0.1037 0.8963 0.0000 
601 0.1031 0.8969 0.0000 
602 0.1012 0.8989 0.0000 
603 0.1006 0.8994 0.0000 
604 0.0997 0.9003 0.0000 
605 0.1008 0.8992 0.0000 
606 0.1008 0.8992 0.0000 
607 0.1007 0.8993 0.0000 
608 0.1009 0.8991 0.0000 
609 0.1006 0.8994 0.0000 
610 0.0993 0.9007 0.0000 
611 0.0992 0.9009 0.0000 
612 0.0979 0.9021 0.0000 
613 0.0984 0.9015 0.0000 
614 0.0972 0.9029 0.0000 
615 0.0976 0.9024 0.0000 
616 0.0978 0.9022 0.0000 
617 0.0982 0.9019 0.0000 
618 0.0973 0.9028 0.0000 
619 0.0965 0.9034 0.0000 
620 0.0960 0.9040 0.0000 
621 0.0965 0.9035 0.0000 
622 0.0964 0.9036 0.0000 
623 0.0963 0.9037 0.0000 
624 0.0966 0.9034 0.0000 
625 0.0964 0.9035 0.0000 
626 0.0974 0.9026 0.0000 
627 0.0982 0.9018 0.0000 
628 0.0974 0.9026 0.0000 
629 0.0968 0.9032 0.0000 
630 0.0960 0.9040 0.0000 
631 0.0965 0.9035 0.0000 
632 0.0968 0.9032 0.0000 
633 0.0954 0.9046 0.0000 
634 0.0957 0.9043 0.0000 
635 0.0961 0.9039 0.0000 
636 0.0959 0.9041 0.0000 
637 0.0958 0.9042 0.0000 
638 0.0956 0.9043 0.0000 
639 0.0950 0.9050 0.0000 
640 0.0954 0.9046 0.0000 
641 0.0945 0.9055 0.0000 
642 0.0938 0.9062 0.0000 
643 0.0931 0.9069 0.0000 
644 0.0935 0.9065 0.0000 
645 0.0927 0.9073 0.0000 
646 0.0929 0.9071 0.0000 
647 0.0937 0.9063 0.0000 
648 0.0927 0.9073 0.0000 
649 0.0925 0.9075 0.0000 
650 0.0937 0.9063 0.0000 
651 0.0932 0.9068 0.0000 
652 0.0940 0.9061 0.0000 
653 0.0936 0.9063 0.0000 
654 0.0939 0.9061 0.0000 
655 0.0947 0.9053 0.0000 
656 0.0959 0.9041 0.0000 
657 0.0950 0.9050 0.0000 
658 0.0944 0.9056 0.0000 
659 0.0942 0.9058 0.0000 
660 0.0936 0.9064 0.0000 
661 0.0949 0.9051 0.0000 
662 0.0936 0.9064 0.0000 
663 0.0940 0.9061 0.0000 
664 0.0938 0.9062 0.0000 
665 0.0935 0.9065 0.0000 
666 0.0930 0.9070 0.0000 
667 0.0929 0.9071 0.0000 
668 0.0935 0.9065 0.0000 
669 0.0935 0.9064 0.0000 
670 0.0921 0.9079 0.0000 
671 0.0919 0.9081 0.0000 
672 0.0908 0.9092 0.0000 
673 0.0895 0.9105 0.0000 
674 0.0897 0.9103 0.0000 
675 0.0888 0.9112 0.0000 
676 0.0895 0.9105 0.0000 
677 0.0895 0.9105 0.0000 
678 0.0897 0.9103 0.0000 
679 0.0901 0.9099 0.0000 
680 0.0913 0.9087 0.0000 
681 0.0910 0.9090 0.0000 
682 0.0908 0.9092 0.0000 
683 0.0909 0.9091 0.0000 
684 0.0908 0.9092 0.0000 
685 0.0926 0.9074 0.0000 
686 0.0944 0.9056 0.0000 
687 0.0939 0.9061 0.0000 
688 0.0954 0.9046 0.0000 
689 0.0954 0.9046 0.0000 
690 0.0958 0.9042 0.0000 
691 0.0956 0.9044 0.0000 
692 0.0969 0.9031 0.0000 
693 0.0960 0.9040 0.0000 
694 0.0973 0.9027 0.0000 
695 0.0974 0.9026 0.0000 
696 0.0978 0.9022 0.0000 
697 0.0968 0.9032 0.0000 
698 0.0978 0.9022 0.0000 
699 0.0996 0.9004 0.0000 
700 0.0999 0.9001 0.0000 
701 0.0981 0.9019 0.0000 
702 0.0989 0.9011 0.0000 
703 0.0988 0.9012 0.0000 
704 0.0982 0.9019 0.0000 
705 0.0965 0.9035 0.0000 
706 0.0969 0.9031 0.0000 
707 0.0979 0.9021 0.0000 
708 0.0985 0.9015 0.0000 
709 0.0990 0.9010 0.0000 
710 0.0997 0.9003 0.0000 
711 0.1002 0.8998 0.0000 
712 0.1007 0.8993 0.0000 
713 0.1011 0.8989 0.0000 
714 0.1011 0.8989 0.0000 
715 0.1009 0.8991 0.0000 
716 0.1011 0.8989 0.0000 
717 0.1008 0.8992 0.0000 
718 0.1011 0.8990 0.0000 
719 0.0999 0.9001 0.0000 
720 0.1004 0.8996 0.0000 
721 0.1017 0.8983 0.0000 
722 0.1015 0.8985 0.0000 
723 0.1013 0.8988 0.0000 
724 0.1013 0.8988 0.0000 
725 0.1017 0.8983 0.0000 
726 0.1024 0.8975 0.0000 
727 0.1024 0.8975 0.0000 
728 0.1021 0.8979 0.0000 
729 0.1019 0.8981 0.0000 
730 0.1001 0.8999 0.0000 
731 0.0997 0.9003 0.0000 
732 0.0994 0.9006 0.0000 
733 0.1002 0.8999 0.0000 
734 0.1006 0.8994 0.0000 
735 0.1009 0.8991 0.0000 
736 0.1020 0.8980 0.0000 
737 0.1022 0.8978 0.0000 
738 0.1025 0.8975 0.0000 
739 0.1022 0.8978 0.0000 
740 0.1004 0.8996 0.0000 
741 0.1014 0.8986 0.0000 
742 0.1027 0.8973 0.0000 
743 0.1030 0.8970 0.0000 
744 0.1037 0.8963 0.0000 
745 0.1037 0.8963 0.0000 
746 0.1037 0.8962 0.0000 
747 0.1033 0.8967 0.0000 
748 0.1019 0.8981 0.0000 
749 0.1035 0.8965 0.0000 
750 0.1032 0.8968 0.0000 
751 0.1032 0.8968 0.0000 
752 0.1024 0.8976 0.0000 
753 0.1026 0.8974 0.0000 
754 0.1032 0.8969 0.0000 
755 0.1026 0.8974 0.0000 
756 0.1026 0.8974 0.0000 
757 0.1029 0.8971 0.0000 
758 0.1037 0.8963 0.0000 
759 0.1022 0.8978 0.0000 
760 0.1023 0.8977 0.0000 
761 0.1029 0.8971 0.0000 
762 0.1029 0.8971 0.0000 
763 0.1022 0.8978 0.0000 
764 0.1022 0.8978 0.0000 
765 0.1025 0.8975 0.0000 
766 0.1032 0.8968 0.0000 
767 0.1031 0.8969 0.0000 
768 0.1027 0.8973 0.0000 
769 0.1018 0.8982 0.0000 
770 0.1023 0.8977 0.0000 
771 0.1030 0.8970 0.0000 
772 0.1027 0.8973 0.0000 
773 0.1023 0.8977 0.0000 
774 0.1028 0.8972 0.0000 
775 0.1033 0.8966 0.0000 
776 0.1035 0.8965 0.0000 
777 0.1031 0.8969 0.0000 
778 0.1025 0.8975 0.0000 
779 0.1023 0.8977 0.0000 
780 0.1016 0.8984 0.0000 
781 0.1005 0.8995 0.0000 
782 0.0995 0.9005 0.0000 
783 0.0985 0.9015 0.0000 
784 0.0991 0.9009 0.0000 
785 0.1001 0.9000 0.0000 
786 0.1001 0.8999 0.0000 
787 0.1009 0.8991 0.0000 
788 0.0993 0.9007 0.0000 
789 0.0999 0.9001 0.0000 
790 0.0995 0.9005 0.0000 
791 0.0983 0.9017 0.0000 
792 0.0979 0.9021 0.0000 
793 0.0972 0.9028 0.0000 
794 0.0981 0.9019 0.0000 
795 0.0975 0.9025 0.0000 
796 0.0994 0.9006 0.0000 
797 0.0988 0.9012 0.0000 
798 0.1001 0.9000 0.0000 
799 0.1001 0.9000 0.0000 
800 0.0998 0.9002 0.0000 
801 0.0999 0.9001 0.0000 
802 0.1005 0.8995 0.0000 
803 0.1017 0.8983 0.0000 
804 0.1021 0.8980 0.0000 
805 0.1019 0.8981 0.0000 
806 0.1027 0.8973 0.0000 
807 0.1025 0.8975 0.0000 
808 0.1023 0.8977 0.0000 
809 0.1019 0.8981 0.0000 
810 0.1015 0.8985 0.0000 
811 0.1002 0.8998 0.0000 
812 0.1008 0.8992 0.0000 
813 0.1013 0.8986 0.0000 
814 0.1028 0.8972 0.0000 
815 0.1033 0.8967 0.0000 
816 0.1026 0.8974 0.0000 
817 0.1028 0.8972 0.0000 
818 0.1027 0.8973 0.0000 
819 0.1029 0.8971 0.0000 
820 0.1029 0.8971 0.0000 
821 0.1032 0.8968 0.0000 
822 0.1038 0.8962 0.0000 
823 0.1027 0.8972 0.0000 
824 0.1029 0.8971 0.0000 
825 0.1032 0.8969 0.0000 
826 0.1045 0.8955 0.0000 
827 0.1036 0.8964 0.0000 
828 0.1034 0.8966 0.0000 
829 0.1039 0.8961 0.0000 
830 0.1042 0.8958 0.0000 
831 0.1038 0.8962 0.0000 
832 0.1046 0.8954 0.0000 
833 0.1045 0.8955 0.0000 
834 0.1045 0.8955 0.0000 
835 0.1054 0.8946 0.0000 
836 0.1052 0.8948 0.0000 
837 0.1074 0.8926 0.0000 
838 0.1074 0.8926 0.0000 
839 0.1066 0.8934 0.0000 
840 0.1069 0.8931 0.0000 
841 0.1085 0.8915 0.0000 
842 0.1100 0.8900 0.0000 
843 0.1098 0.8902 0.0000 
844 0.1112 0.8888 0.0000 
845 0.1116 0.8884 0.0000 
846 0.1133 0.8867 0.0000 
847 0.1132 0.8868 0.0000 
848 0.1135 0.8864 0.0000 
849 0.1131 0.8869 0.0000 
850 0.1135 0.8865 0.0000 
851 0.1135 0.8864 0.0000 
852 0.1141 0.8859 0.0000 
853 0.1148 0.8852 0.0000 
854 0.1149 0.8851 0.0000 
855 0.1140 0.8860 0.0000 
856 0.1139 0.8861 0.0000 
857 0.1140 0.8860 0.0000 
858 0.1130 0.8870 0.0000 
859 0.1128 0.8872 0.0000 
860 0.1119 0.8881 0.0000 
861 0.1126 0.8874 0.0000 
862 0.1130 0.8870 0.0000 
863 0.1117 0.8883 0.0000 
864 0.1129 0.8871 0.0000 
865 0.1142 0.8858 0.0000 
866 0.1138 0.8862 0.0000 
867 0.1138 0.8862 0.0000 
868 0.1142 0.8859 0.0000 
869 0.1139 0.8861 0.0000 
870 0.1136 0.8864 0.0000 
871 0.1133 0.8867 0.0000 
872 0.1125 0.8875 0.0000 
873 0.1124 0.8875 0.0000 
874 0.1133 0.8867 0.0000 
875 0.1139 0.8861 0.0000 
876 0.1143 0.8858 0.0000 
877 0.1137 0.8863 0.0000 
878 0.1125 0.8875 0.0000 
879 0.1124 0.8876 0.0000 
880 0.1119 0.8881 0.0000 
881 0.1119 0.8881 0.0000 
882 0.1122 0.8878 0.0000 
883 0.1124 0.8876 0.0000 
884 0.1132 0.8869 0.0000 
885 0.1123 0.8877 0.0000 
886 0.1111 0.8889 0.0000 
887 0.1105 0.8895 0.0000 
888 0.1125 0.8875 0.0000 
889 0.1129 0.8871 0.0000 
890 0.1129 0.8871 0.0000 
891 0.1123 0.8877 0.0000 
892 0.1128 0.8872 0.0000 
893 0.1136 0.8864 0.0000 
894 0.1138 0.8862 0.0000 
895 0.1159 0.8841 0.0000 
896 0.1164 0.8836 0.0000 
897 0.1176 0.8824 0.0000 
898 0.1163 0.8837 0.0000 
899 0.1165 0.8835 0.0000 
900 0.1176 0.8824 0.0000 
901 0.1168 0.8832 0.0000 
902 0.1171 0.8829 0.0000 
903 0.1178 0.8821 0.0000 
904 0.1178 0.8822 0.0000 
905 0.1195 0.8805 0.0000 
906 0.1194 0.8806 0.0000 
907 0.1187 0.8813 0.0000 
908 0.1187 0.8813 0.0000 
909 0.1177 0.8822 0.0000 
910 0.1189 0.8811 0.0000 
911 0.1186 0.8814 0.0000 
912 0.1181 0.8820 0.0000 
913 0.1192 0.8808 0.0000 
914 0.1204 0.8796 0.0000 
915 0.1187 0.8813 0.0000 
916 0.1169 0.8831 0.0000 
917 0.1157 0.8843 0.0000 
918 0.1159 0.8841 0.0000 
919 0.1159 0.8841 0.0000 
920 0.1160 0.8840 0.0000 
921 0.1154 0.8846 0.0000 
922 0.1160 0.8840 0.0000 
923 0.1155 0.8845 0.0000 
924 0.1160 0.8840 0.0000 
925 0.1157 0.8843 0.0000 
926 0.1165 0.8835 0.0000 
927 0.1148 0.8852 0.0000 
928 0.1138 0.8862 0.0000 
929 0.1139 0.8861 0.0000 
930 0.1142 0.8858 0.0000 
931 0.1145 0.8854 0.0000 
932 0.1154 0.8846 0.0000 
933 0.1143 0.8857 0.0000 
934 0.1152 0.8848 0.0000 
935 0.1158 0.8842 0.0000 
936 0.1161 0.8840 0.0000 
937 0.1168 0.8832 0.0000 
938 0.1165 0.8835 0.0000 
939 0.1176 0.8824 0.0000 
940 0.1184 0.8816 0.0000 
941 0.1182 0.8818 0.0000 
942 0.1177 0.8823 0.0000 
943 0.1190 0.8810 0.0000 
944 0.1174 0.8826 0.0000 
945 0.1169 0.8831 0.0000 
946 0.1157 0.8843 0.0000 
947 0.1169 0.8831 0.0000 
948 0.1163 0.8837 0.0000 
949 0.1174 0.8826 0.0000 
950 0.1173 0.8827 0.0000 
951 0.1171 0.8829 0.0000 
952 0.1168 0.8832 0.0000 
953 0.1166 0.8834 0.0000 
954 0.1157 0.8843 0.0000 
955 0.1150 0.8850 0.0000 
956 0.1149 0.8851 0.0000 
957 0.1153 0.8847 0.0000 
958 0.1144 0.8856 0.0000 
959 0.1162 0.8838 0.0000 
960 0.1178 0.8822 0.0000 
961 0.1192 0.8808 0.0000 
962 0.1182 0.8818 0.0000 
963 0.1194 0.8806 0.0000 
964 0.1191 0.8809 0.0000 
965 0.1183 0.8817 0.0000 
966 0.1175 0.8825 0.0000 
967 0.1157 0.8843 0.0000 
968 0.1142 0.8859 0.0000 
969 0.1146 0.8854 0.0000 
970 0.1169 0.8831 0.0000 
971 0.1160 0.8840 0.0000 
972 0.1157 0.8843 0.0000 
973 0.1158 0.8841 0.0000 
974 0.1172 0.8829 0.0000 
975 0.1172 0.8828 0.0000 
976 0.1189 0.8811 0.0000 
977 0.1196 0.8804 0.0000 
978 0.1206 0.8794 0.0000 
979 0.1179 0.8821 0.0000 
980 0.1184 0.8815 0.0000 
981 0.1183 0.8817 0.0000 
982 0.1175 0.8825 0.0000 
983 0.1177 0.8822 0.0000 
984 0.1163 0.8838 0.0000 
985 0.1172 0.8828 0.0000 
986 0.1182 0.8818 0.0000 
987 0.1172 0.8828 0.0000 
988 0.1162 0.8839 0.0000 
989 0.1159 0.8841 0.0000 
990 0.1154 0.8846 0.0000 
991 0.1152 0.8848 0.0000 
992 0.1166 0.8834 0.0000 
993 0.1172 0.8828 0.0000 
994 0.1179 0.8821 0.0000 
995 0.1187 0.8813 0.0000 
996 0.1192 0.8809 0.0000 
997 0.1197 0.8803 0.0000 
998 0.1208 0.8792 0.0000 
999 0.1196 0.8804 0.0000 
1000 0.1197 0.8803 0.0000 
1001 0.1187 0.8813 0.0000 
1002 0.1183 0.8817 0.0000 
1003 0.1184 0.8815 0.0000 
1004 0.1196 0.8804 0.0000 
1005 0.1201 0.8799 0.0000 
1006 0.1199 0.8801 0.0000 
1007 0.1192 0.8808 0.0000 
1008 0.1196 0.8804 0.0000 
1009 0.1213 0.8787 0.0000 
1010 0.1213 0.8787 0.0000 
1011 0.1212 0.8788 0.0000 
1012 0.1191 0.8809 0.0000 
1013 0.1195 0.8805 0.0000 
1014 0.1188 0.8812 0.0000 
1015 0.1194 0.8806 0.0000 
1016 0.1193 0.8807 0.0000 
1017 0.1193 0.8807 0.0000 
1018 0.1199 0.8801 0.0000 
1019 0.1185 0.8815 0.0000 
1020 0.1182 0.8819 0.0000 
1021 0.1188 0.8812 0.0000 
1022 0.1190 0.8810 0.0000 
1023 0.1193 0.8807 0.0000 
1024 0.1183 0.8817 0.0000 
1025 0.1181 0.8819 0.0000 
1026 0.1185 0.8815 0.0000 
1027 0.1176 0.8824 0.0000 
1028 0.1181 0.8819 0.0000 
1029 0.1175 0.8825 0.0000 
1030 0.1164 0.8836 0.0000 
1031 0.1168 0.8832 0.0000 
1032 0.1168 0.8831 0.0000 
1033 0.1153 0.8847 0.0000 
1034 0.1159 0.8841 0.0000 
1035 0.1150 0.8850 0.0000 
1036 0.1151 0.8849 0.0000 
1037 0.1149 0.8851 0.0000 
1038 0.1131 0.8869 0.0000 
1039 0.1133 0.8867 0.0000 
1040 0.1125 0.8875 0.0000 
1041 0.1121 0.8879 0.0000 
1042 0.1115 0.8885 0.0000 
1043 0.1109 0.8891 0.0000 
1044 0.1111 0.8889 0.0000 
1045 0.1097 0.8903 0.0000 
1046 0.1098 0.8902 0.0000 
1047 0.1114 0.8886 0.0000 
1048 0.1103 0.8897 0.0000 
1049 0.1127 0.8873 0.0000 
1050 0.1129 0.8871 0.0000 
1051 0.1138 0.8862 0.0000 
1052 0.1157 0.8843 0.0000 
1053 0.1156 0.8844 0.0000 
1054 0.1171 0.8829 0.0000 
1055 0.1177 0.8823 0.0000 
1056 0.1177 0.8823 0.0000 
1057 0.1181 0.8819 0.0000 
1058 0.1190 0.8810 0.0000 
1059 0.1200 0.8800 0.0000 
1060 0.1190 0.8810 0.0000 
1061 0.1208 0.8791 0.0000 
1062 0.1229 0.8771 0.0000 
1063 0.1232 0.8768 0.0000 
1064 0.1247 0.8753 0.0000 
1065 0.1237 0.8763 0.0000 
1066 0.1236 0.8764 0.0000 
1067 0.1234 0.8766 0.0000 
1068 0.1235 0.8766 0.0000 
1069 0.1234 0.8766 0.0000 
1070 0.1232 0.8768 0.0000 
1071 0.1237 0.8763 0.0000 
1072 0.1252 0.8749 0.0000 
1073 0.1248 0.8752 0.0000 
1074 0.1253 0.8747 0.0000 
1075 0.1264 0.8736 0.0000 
1076 0.1245 0.8755 0.0000 
1077 0.1251 0.8749 0.0000 
1078 0.1245 0.8755 0.0000 
1079 0.1247 0.8753 0.0000 
1080 0.1240 0.8760 0.0000 
1081 0.1238 0.8762 0.0000 
1082 0.1234 0.8766 0.0000 
1083 0.1228 0.8772 0.0000 
1084 0.1228 0.8772 0.0000 
1085 0.1233 0.8767 0.0000 
1086 0.1225 0.8776 0.0000 
1087 0.1220 0.8780 0.0000 
1088 0.1203 0.8797 0.0000 
1089 0.1214 0.8786 0.0000 
1090 0.1210 0.8790 0.0000 
1091 0.1206 0.8794 0.0000 
1092 0.1200 0.8800 0.0000 
1093 0.1203 0.8797 0.0000 
1094 0.1202 0.8798 0.0000 
1095 0.1202 0.8798 0.0000 
1096 0.1203 0.8797 0.0000 
1097 0.1208 0.8792 0.0000 
1098 0.1201 0.8799 0.0000 
1099 0.1206 0.8794 0.0000 
1100 0.1208 0.8792 0.0000 
1101 0.1196 0.8804 0.0000 
1102 0.1206 0.8794 0.0000 
1103 0.1204 0.8796 0.0000 
1104 0.1202 0.8798 0.0000 
1105 0.1193 0.8807 0.0000 
1106 0.1190 0.8810 0.0000 
1107 0.1178 0.8822 0.0000 
1108 0.1179 0.8821 0.0000 
1109 0.1197 0.8803 0.0000 
1110 0.1195 0.8805 0.0000 
1111 0.1202 0.8798 0.0000 
1112 0.1201 0.8799 0.0000 
1113 0.1203 0.8797 0.0000 
1114 0.1209 0.8791 0.0000 
1115 0.1195 0.8805 0.0000 
1116 0.1196 0.8804 0.0000 
1117 0.1199 0.8801 0.0000 
1118 0.1183 0.8817 0.0000 
1119 0.1178 0.8822 0.0000 
1120 0.1165 0.8835 0.0000 
1121 0.1167 0.8833 0.0000 
1122 0.1153 0.8847 0.0000 
1123 0.1159 0.8841 0.0000 
1124 0.1166 0.8834 0.0000 
1125 0.1166 0.8834 0.0000 
1126 0.1163 0.8837 0.0000 
1127 0.1164 0.8836 0.0000 
1128 0.1158 0.8842 0.0000 
1129 0.1164 0.8836 0.0000 
1130 0.1167 0.8833 0.0000 
1131 0.1165 0.8835 0.0000 
1132 0.1156 0.8844 0.0000 
1133 0.1154 0.8846 0.0000 
1134 0.1145 0.8855 0.0000 
1135 0.1150 0.8850 0.0000 
1136 0.1164 0.8836 0.0000 
1137 0.1169 0.8831 0.0000 
1138 0.1163 0.8838 0.0000 
1139 0.1171 0.8830 0.0000 
1140 0.1179 0.8821 0.0000 
1141 0.1182 0.8818 0.0000 
1142 0.1184 0.8815 0.0000 
1143 0.1184 0.8816 0.0000 
1144 0.1186 0.8814 0.0000 
1145 0.1190 0.8810 0.0000 
1146 0.1187 0.8813 0.0000 
1147 0.1169 0.8831 0.0000 
1148 0.1169 0.8831 0.0000 
1149 0.1182 0.8819 0.0000 
1150 0.1173 0.8827 0.0000 
1151 0.1176 0.8824 0.0000 
1152 0.1168 0.8832 0.0000 
1153 0.1163 0.8837 0.0000 
1154 0.1168 0.8832 0.0000 
1155 0.1169 0.8831 0.0000 
1156 0.1158 0.8842 0.0000 
1157 0.1163 0.8837 0.0000 
1158 0.1172 0.8828 0.0000 
1159 0.1172 0.8828 0.0000 
1160 0.1182 0.8818 0.0000 
1161 0.1182 0.8819 0.0000 
1162 0.1180 0.8820 0.0000 
1163 0.1186 0.8814 0.0000 
1164 0.1189 0.8811 0.0000 
1165 0.1189 0.8811 0.0000 
1166 0.1186 0.8814 0.0000 
1167 0.1180 0.8820 0.0000 
1168 0.1176 0.8824 0.0000 
1169 0.1162 0.8838 0.0000 
1170 0.1164 0.8835 0.0000 
1171 0.1169 0.8831 0.0000 
1172 0.1173 0.8827 0.0000 
1173 0.1171 0.8829 0.0000 
1174 0.1191 0.8809 0.0000 
1175 0.1197 0.8803 0.0000 
1176 0.1208 0.8792 0.0000 
1177 0.1219 0.8781 0.0000 
1178 0.1211 0.8789 0.0000 
1179 0.1215 0.8785 0.0000 
1180 0.1231 0.8769 0.0000 
1181 0.1244 0.8756 0.0000 
1182 0.1243 0.8757 0.0000 
1183 0.1248 0.8752 0.0000 
1184 0.1244 0.8756 0.0000 
1185 0.1230 0.8770 0.0000 
1186 0.1219 0.8781 0.0000 
1187 0.1226 0.8774 0.0000 
1188 0.1239 0.8761 0.0000 
1189 0.1244 0.8756 0.0000 
1190 0.1229 0.8771 0.0000 
1191 0.1230 0.8770 0.0000 
1192 0.1239 0.8761 0.0000 
1193 0.1229 0.8771 0.0000 
1194 0.1220 0.8780 0.0000 
1195 0.1212 0.8788 0.0000 
1196 0.1210 0.8790 0.0000 
1197 0.1224 0.8777 0.0000 
1198 0.1230 0.8770 0.0000 
1199 0.1231 0.8769 0.0000 
1200 0.1235 0.8766 0.0000 
1201 0.1217 0.8782 0.0000 
1202 0.1226 0.8774 0.0000 
1203 0.1234 0.8766 0.0000 
1204 0.1232 0.8768 0.0000 
1205 0.1235 0.8765 0.0000 
1206 0.1242 0.8758 0.0000 
1207 0.1243 0.8757 0.0000 
1208 0.1241 0.8759 0.0000 
1209 0.1253 0.8747 0.0000 
1210 0.1262 0.8739 0.0000 
1211 0.1261 0.8739 0.0000 
1212 0.1275 0.8725 0.0000 
1213 0.1270 0.8730 0.0000 
1214 0.1260 0.8740 0.0000 
1215 0.1273 0.8727 0.0000 
1216 0.1274 0.8726 0.0000 
1217 0.1298 0.8702 0.0000 
1218 0.1304 0.8696 0.0000 
1219 0.1296 0.8704 0.0000 
1220 0.1287 0.8713 0.0000 
1221 0.1284 0.8716 0.0000 
1222 0.1285 0.8715 0.0000 
1223 0.1289 0.8711 0.0000 
1224 0.1290 0.8710 0.0000 
1225 0.1301 0.8699 0.0000 
1226 0.1301 0.8699 0.0000 
1227 0.1314 0.8686 0.0000 
1228 0.1315 0.8685 0.0000 
1229 0.1307 0.8693 0.0000 
1230 0.1313 0.8687 0.0000 
1231 0.1325 0.8675 0.0000 
1232 0.1330 0.8670 0.0000 
1233 0.1343 0.8657 0.0000 
1234 0.1337 0.8663 0.0000 
1235 0.1359 0.8641 0.0000 
1236 0.1340 0.8660 0.0000 
1237 0.1340 0.8660 0.0000 
1238 0.1359 0.8640 0.0000 
1239 0.1346 0.8655 0.0000 
1240 0.1340 0.8660 0.0000 
1241 0.1341 0.8659 0.0000 
1242 0.1346 0.8654 0.0000 
1243 0.1345 0.8655 0.0000 
1244 0.1349 0.8651 0.0000 
1245 0.1343 0.8658 0.0000 
1246 0.1353 0.8648 0.0000 
1247 0.1366 0.8634 0.0000 
1248 0.1352 0.8648 0.0000 
1249 0.1349 0.8651 0.0000 
1250 0.1349 0.8651 0.0000 
1251 0.1351 0.8649 0.0000 
1252 0.1350 0.8650 0.0000 
1253 0.1341 0.8659 0.0000 
1254 0.1351 0.8649 0.0000 
1255 0.1361 0.8639 0.0000 
1256 0.1354 0.8646 0.0000 
1257 0.1350 0.8650 0.0000 
1258 0.1352 0.8648 0.0000 
1259 0.1355 0.8645 0.0000 
1260 0.1351 0.8649 0.0000 
1261 0.1352 0.8648 0.0000 
1262 0.1371 0.8629 0.0000 
1263 0.1372 0.8628 0.0000 
1264 0.1375 0.8625 0.0000 
1265 0.1383 0.8617 0.0000 
1266 0.1386 0.8614 0.0000 
1267 0.1390 0.8610 0.0000 
1268 0.1391 0.8609 0.0000 
1269 0.1372 0.8628 0.0000 
1270 0.1376 0.8624 0.0000 
1271 0.1366 0.8633 0.0000 
1272 0.1364 0.8636 0.0000 
1273 0.1353 0.8648 0.0000 
1274 0.1354 0.8646 0.0000 
1275 0.1355 0.8645 0.0000 
1276 0.1350 0.8650 0.0000 
1277 0.1359 0.8641 0.0000 
1278 0.1350 0.8650 0.0000 
1279 0.1353 0.8647 0.0000 
1280 0.1348 0.8652 0.0000 
1281 0.1343 0.8657 0.0000 
1282 0.1352 0.8648 0.0000 
1283 0.1353 0.8647 0.0000 
1284 0.1346 0.8654 0.0000 
1285 0.1358 0.8641 0.0000 
1286 0.1363 0.8637 0.0000 
1287 0.1374 0.8626 0.0000 
1288 0.1371 0.8629 0.0000 
1289 0.1363 0.8637 0.0000 
1290 0.1368 0.8631 0.0000 
1291 0.1382 0.8618 0.0000 
1292 0.1373 0.8627 0.0000 
1293 0.1368 0.8631 0.0000 
1294 0.1352 0.8648 0.0000 
1295 0.1351 0.8649 0.0000 
1296 0.1355 0.8645 0.0000 
1297 0.1349 0.8651 0.0000 
1298 0.1360 0.8640 0.0000 
1299 0.1376 0.8625 0.0000 
1300 0.1396 0.8604 0.0000 
1301 0.1395 0.8605 0.0000 
1302 0.1401 0.8599 0.0000 
1303 0.1416 0.8583 0.0000 
1304 0.1412 0.8588 0.0000 
1305 0.1411 0.8589 0.0000 
1306 0.1410 0.8590 0.0000 
1307 0.1409 0.8590 0.0000 
1308 0.1403 0.8597 0.0000 
1309 0.1407 0.8593 0.0000 
1310 0.1404 0.8596 0.0000 
1311 0.1423 0.8577 0.0000 
1312 0.1433 0.8567 0.0000 
1313 0.1439 0.8561 0.0000 
1314 0.1449 0.8551 0.0000 
1315 0.1453 0.8547 0.0000 
1316 0.1436 0.8564 0.0000 
1317 0.1439 0.8561 0.0000 
1318 0.1447 0.8553 0.0000 
1319 0.1454 0.8547 0.0000 
1320 0.1446 0.8554 0.0000 
1321 0.1450 0.8550 0.0000 
1322 0.1449 0.8551 0.0000 
1323 0.1437 0.8562 0.0000 
1324 0.1445 0.8555 0.0000 
1325 0.1443 0.8557 0.0000 
1326 0.1451 0.8549 0.0000 
1327 0.1445 0.8555 0.0000 
1328 0.1435 0.8565 0.0000 
1329 0.1419 0.8581 0.0000 
1330 0.1408 0.8592 0.0000 
1331 0.1417 0.8583 0.0000 
1332 0.1418 0.8582 0.0000 
1333 0.1420 0.8580 0.0000 
1334 0.1412 0.8588 0.0000 
1335 0.1417 0.8583 0.0000 
1336 0.1406 0.8594 0.0000 
1337 0.1404 0.8597 0.0000 
1338 0.1405 0.8595 0.0000 
1339 0.1395 0.8605 0.0000 
1340 0.1406 0.8594 0.0000 
1341 0.1402 0.8598 0.0000 
1342 0.1397 0.8603 0.0000 
1343 0.1373 0.8627 0.0000 
1344 0.1362 0.8638 0.0000 
1345 0.1354 0.8646 0.0000 
1346 0.1364 0.8636 0.0000 
1347 0.1376 0.8624 0.0000 
1348 0.1376 0.8625 0.0000 
1349 0.1388 0.8612 0.0000 
1350 0.1394 0.8606 0.0000 
1351 0.1390 0.8610 0.0000 
1352 0.1399 0.8600 0.0000 
1353 0.1402 0.8598 0.0000 
1354 0.1407 0.8593 0.0000 
1355 0.1412 0.8588 0.0000 
1356 0.1420 0.8580 0.0000 
1357 0.1399 0.8601 0.0000 
1358 0.1399 0.8601 0.0000 
1359 0.1402 0.8598 0.0000 
1360 0.1397 0.8603 0.0000 
1361 0.1406 0.8595 0.0000 
1362 0.1406 0.8594 0.0000 
1363 0.1408 0.8592 0.0000 
1364 0.1404 0.8596 0.0000 
1365 0.1399 0.8601 0.0000 
1366 0.1421 0.8579 0.0000 
1367 0.1417 0.8583 0.0000 
1368 0.1419 0.8581 0.0000 
1369 0.1420 0.8580 0.0000 
1370 0.1428 0.8572 0.0000 
1371 0.1447 0.8553 0.0000 
1372 0.1446 0.8554 0.0000 
1373 0.1462 0.8538 0.0000 
1374 0.1463 0.8537 0.0000 
1375 0.1468 0.8532 0.0000 
1376 0.1482 0.8518 0.0000 
1377 0.1474 0.8526 0.0000 
1378 0.1482 0.8518 0.0000 
1379 0.1462 0.8538 0.0000 
1380 0.1467 0.8532 0.0000 
1381 0.1449 0.8550 0.0000 
1382 0.1444 0.8556 0.0000 
1383 0.1457 0.8543 0.0000 
1384 0.1454 0.8546 0.0000 
1385 0.1462 0.8538 0.0000 
1386 0.1456 0.8544 0.0000 
1387 0.1449 0.8551 0.0000 
1388 0.1469 0.8531 0.0000 
1389 0.1469 0.8530 0.0000 
1390 0.1473 0.8527 0.0000 
1391 0.1460 0.8540 0.0000 
1392 0.1477 0.8524 0.0000 
1393 0.1492 0.8508 0.0000 
1394 0.1513 0.8487 0.0000 
1395 0.1511 0.8489 0.0000 
1396 0.1527 0.8473 0.0000 
1397 0.1527 0.8472 0.0000 
1398 0.1514 0.8486 0.0000 
1399 0.1509 0.8491 0.0000 
1400 0.1504 0.8496 0.0000 
1401 0.1500 0.8500 0.0000 
1402 0.1516 0.8484 0.0000 
1403 0.1518 0.8482 0.0000 
1404 0.1518 0.8482 0.0000 
1405 0.1520 0.8480 0.0000 
1406 0.1507 0.8493 0.0000 
1407 0.1500 0.8500 0.0000 
1408 0.1497 0.8503 0.0000 
1409 0.1498 0.8502 0.0000 
1410 0.1516 0.8484 0.0000 
1411 0.1514 0.8486 0.0000 
1412 0.1515 0.8485 0.0000 
1413 0.1508 0.8492 0.0000 
1414 0.1514 0.8486 0.0000 
1415 0.1502 0.8498 0.0000 
1416 0.1504 0.8496 0.0000 
1417 0.1498 0.8502 0.0000 
1418 0.1489 0.8510 0.0000 
1419 0.1490 0.8509 0.0000 
1420 0.1482 0.8518 0.0000 
1421 0.1494 0.8506 0.0000 
1422 0.1485 0.8515 0.0000 
1423 0.1476 0.8524 0.0000 
1424 0.1465 0.8535 0.0000 
1425 0.1469 0.8531 0.0000 
1426 0.1467 0.8533 0.0000 
1427 0.1468 0.8532 0.0000 
1428 0.1457 0.8543 0.0000 
1429 0.1458 0.8542 0.0000 
1430 0.1472 0.8528 0.0000 
1431 0.1469 0.8531 0.0000 
1432 0.1460 0.8540 0.0000 
1433 0.1452 0.8548 0.0000 
1434 0.1447 0.8553 0.0000 
1435 0.1455 0.8545 0.0000 
1436 0.1448 0.8552 0.0000 
1437 0.1447 0.8552 0.0000 
1438 0.1438 0.8562 0.0000 
1439 0.1438 0.8562 0.0000 
1440 0.1437 0.8563 0.0000 
1441 0.1438 0.8562 0.0000 
1442 0.1420 0.8580 0.0000 
1443 0.1417 0.8582 0.0000 
1444 0.1396 0.8605 0.0000 
1445 0.1393 0.8608 0.0000 
1446 0.1399 0.8601 0.0000 
1447 0.1401 0.8599 0.0000 
1448 0.1415 0.8585 0.0000 
1449 0.1401 0.8599 0.0000 
1450 0.1399 0.8601 0.0000 
1451 0.1407 0.8593 0.0000 
1452 0.1400 0.8600 0.0000 
1453 0.1399 0.8601 0.0000 
1454 0.1406 0.8594 0.0000 
1455 0.1390 0.8610 0.0000 
1456 0.1391 0.8609 0.0000 
1457 0.1396 0.8603 0.0000 
1458 0.1395 0.8605 0.0000 
1459 0.1404 0.8596 0.0000 
1460 0.1411 0.8589 0.0000 
1461 0.1410 0.8590 0.0000 
1462 0.1407 0.8593 0.0000 
1463 0.1403 0.8597 0.0000 
1464 0.1396 0.8604 0.0000 
1465 0.1412 0.8588 0.0000 
1466 0.1420 0.8580 0.0000 
1467 0.1419 0.8581 0.0000 
1468 0.1420 0.8580 0.0000 
1469 0.1427 0.8573 0.0000 
1470 0.1438 0.8562 0.0000 
1471 0.1446 0.8554 0.0000 
1472 0.1449 0.8550 0.0000 
1473 0.1440 0.8560 0.0000 
1474 0.1446 0.8555 0.0000 
1475 0.1434 0.8566 0.0000 
1476 0.1439 0.8561 0.0000 
1477 0.1446 0.8555 0.0000 
1478 0.1437 0.8562 0.0000 
1479 0.1436 0.8564 0.0000 
1480 0.1433 0.8567 0.0000 
1481 0.1441 0.8559 0.0000 
1482 0.1431 0.8569 0.0000 
1483 0.1423 0.8577 0.0000 
1484 0.1414 0.8586 0.0000 
1485 0.1405 0.8595 0.0000 
1486 0.1395 0.8605 0.0000 
1487 0.1403 0.8598 0.0000 
1488 0.1401 0.8599 0.0000 
1489 0.1401 0.8599 0.0000 
1490 0.1402 0.8598 0.0000 
1491 0.1426 0.8574 0.0000 
1492 0.1414 0.8586 0.0000 
1493 0.1427 0.8573 0.0000 
1494 0.1431 0.8569 0.0000 
1495 0.1420 0.8580 0.0000 
1496 0.1400 0.8600 0.0000 
1497 0.1379 0.8621 0.0000 
1498 0.1363 0.8638 0.0000 
1499 0.1372 0.8628 0.0000 
1500 0.1361 0.8639 0.0000 
1501 0.1361 0.8639 0.0000 
1502 0.1361 0.8639 0.0000 
1503 0.1377 0.8623 0.0000 
1504 0.1367 0.8633 0.0000 
1505 0.1376 0.8623 0.0000 
1506 0.1379 0.8621 0.0000 
1507 0.1392 0.8608 0.0000 
1508 0.1398 0.8602 0.0000 
1509 0.1393 0.8607 0.0000 
1510 0.1392 0.8608 0.0000 
1511 0.1384 0.8616 0.0000 
1512 0.1387 0.8613 0.0000 
1513 0.1396 0.8604 0.0000 
1514 0.1400 0.8600 0.0000 
1515 0.1406 0.8594 0.0000 
1516 0.1396 0.8605 0.0000 
1517 0.1401 0.8599 0.0000 
1518 0.1407 0.8593 0.0000 
1519 0.1428 0.8572 0.0000 
1520 0.1425 0.8575 0.0000 
1521 0.1429 0.8571 0.0000 
1522 0.1441 0.8559 0.0000 
1523 0.1433 0.8567 0.0000 
1524 0.1431 0.8569 0.0000 
1525 0.1441 0.8559 0.0000 
1526 0.1453 0.8547 0.0000 
1527 0.1456 0.8544 0.0000 
1528 0.1463 0.8537 0.0000 
1529 0.1460 0.8540 0.0000 
1530 0.1459 0.8541 0.0000 
1531 0.1460 0.8540 0.0000 
1532 0.1470 0.8530 0.0000 
1533 0.1475 0.8525 0.0000 
1534 0.1469 0.8531 0.0000 
1535 0.1461 0.8539 0.0000 
1536 0.1460 0.8540 0.0000 
1537 0.1462 0.8538 0.0000 
1538 0.1472 0.8528 0.0000 
1539 0.1495 0.8505 0.0000 
1540 0.1504 0.8496 0.0000 
1541 0.1491 0.8509 0.0000 
1542 0.1491 0.8509 0.0000 
1543 0.1477 0.8522 0.0000 
1544 0.1480 0.8519 0.0000 
1545 0.1461 0.8539 0.0000 
1546 0.1455 0.8545 0.0000 
1547 0.1449 0.8550 0.0000 
1548 0.1444 0.8556 0.0000 
1549 0.1437 0.8562 0.0000 
1550 0.1437 0.8562 0.0000 
1551 0.1437 0.8563 0.0000 
1552 0.1438 0.8562 0.0000 
1553 0.1437 0.8562 0.0000 
1554 0.1429 0.8571 0.0000 
1555 0.1426 0.8573 0.0000 
1556 0.1428 0.8572 0.0000 
1557 0.1437 0.8563 0.0000 
1558 0.1443 0.8557 0.0000 
1559 0.1441 0.8559 0.0000 
1560 0.1441 0.8559 0.0000 
1561 0.1453 0.8547 0.0000 
1562 0.1451 0.8549 0.0000 
1563 0.1454 0.8546 0.0000 
1564 0.1454 0.8547 0.0000 
1565 0.1458 0.8542 0.0000 
1566 0.1460 0.8540 0.0000 
1567 0.1468 0.8532 0.0000 
1568 0.1470 0.8530 0.0000 
1569 0.1456 0.8544 0.0000 
1570 0.1459 0.8541 0.0000 
1571 0.1459 0.8541 0.0000 
1572 0.1455 0.8545 0.0000 
1573 0.1462 0.8538 0.0000 
1574 0.1454 0.8546 0.0000 
1575 0.1439 0.8561 0.0000 
1576 0.1436 0.8564 0.0000 
1577 0.1426 0.8573 0.0000 
1578 0.1416 0.8584 0.0000 
1579 0.1396 0.8604 0.0000 
1580 0.1398 0.8602 0.0000 
1581 0.1391 0.8609 0.0000 
1582 0.1400 0.8600 0.0000 
1583 0.1393 0.8607 0.0000 
1584 0.1387 0.8613 0.0000 
1585 0.1398 0.8602 0.0000 
1586 0.1395 0.8605 0.0000 
1587 0.1407 0.8593 0.0000 
1588 0.1406 0.8593 0.0000 
1589 0.1398 0.8602 0.0000 
1590 0.1416 0.8584 0.0000 
1591 0.1412 0.8588 0.0000 
1592 0.1405 0.8595 0.0000 
1593 0.1405 0.8595 0.0000 
1594 0.1414 0.8587 0.0000 
1595 0.1430 0.8570 0.0000 
1596 0.1422 0.8578 0.0000 
1597 0.1424 0.8577 0.0000 
1598 0.1421 0.8579 0.0000 
1599 0.1420 0.8580 0.0000 
1600 0.1404 0.8597 0.0000 
1601 0.1403 0.8597 0.0000 
1602 0.1399 0.8601 0.0000 
1603 0.1399 0.8600 0.0000 
1604 0.1400 0.8600 0.0000 
1605 0.1403 0.8597 0.0000 
1606 0.1385 0.8615 0.0000 
1607 0.1389 0.8611 0.0000 
1608 0.1392 0.8608 0.0000 
1609 0.1389 0.8611 0.0000 
1610 0.1384 0.8616 0.0000 
1611 0.1391 0.8609 0.0000 
1612 0.1382 0.8618 0.0000 
1613 0.1384 0.8617 0.0000 
1614 0.1385 0.8615 0.0000 
1615 0.1386 0.8613 0.0000 
1616 0.1388 0.8612 0.0000 
1617 0.1384 0.8617 0.0000 
1618 0.1374 0.8626 0.0000 
1619 0.1365 0.8635 0.0000 
1620 0.1379 0.8621 0.0000 
1621 0.1389 0.8611 0.0000 
1622 0.1391 0.8609 0.0000 
1623 0.1385 0.8615 0.0000 
1624 0.1398 0.8602 0.0000 
1625 0.1399 0.8600 0.0000 
1626 0.1403 0.8598 0.0000 
1627 0.1396 0.8603 0.0000 
1628 0.1394 0.8607 0.0000 
1629 0.1389 0.8611 0.0000 
1630 0.1370 0.8630 0.0000 
1631 0.1381 0.8619 0.0000 
1632 0.1386 0.8613 0.0000 
1633 0.1383 0.8617 0.0000 
1634 0.1381 0.8619 0.0000 
1635 0.1392 0.8608 0.0000 
1636 0.1386 0.8614 0.0000 
1637 0.1384 0.8616 0.0000 
1638 0.1401 0.8599 0.0000 
1639 0.1391 0.8609 0.0000 
1640 0.1391 0.8609 0.0000 
1641 0.1379 0.8620 0.0000 
1642 0.1384 0.8616 0.0000 
1643 0.1373 0.8627 0.0000 
1644 0.1371 0.8629 0.0000 
1645 0.1371 0.8629 0.0000 
1646 0.1376 0.8624 0.0000 
1647 0.1373 0.8627 0.0000 
1648 0.1373 0.8628 0.0000 
1649 0.1380 0.8620 0.0000 
1650 0.1395 0.8605 0.0000 
1651 0.1419 0.8581 0.0000 
1652 0.1445 0.8555 0.0000 
1653 0.1441 0.8559 0.0000 
1654 0.1436 0.8565 0.0000 
1655 0.1433 0.8567 0.0000 
1656 0.1424 0.8577 0.0000 
1657 0.1416 0.8583 0.0000 
1658 0.1408 0.8592 0.0000 
1659 0.1412 0.8588 0.0000 
1660 0.1419 0.8581 0.0000 
1661 0.1432 0.8568 0.0000 
1662 0.1436 0.8565 0.0000 
1663 0.1432 0.8568 0.0000 
1664 0.1442 0.8558 0.0000 
1665 0.1440 0.8560 0.0000 
1666 0.1439 0.8561 0.0000 
1667 0.1442 0.8558 0.0000 
1668 0.1456 0.8544 0.0000 
1669 0.1456 0.8545 0.0000 
1670 0.1468 0.8532 0.0000 
1671 0.1456 0.8545 0.0000 
1672 0.1466 0.8534 0.0000 
1673 0.1468 0.8532 0.0000 
1674 0.1473 0.8527 0.0000 
1675 0.1478 0.8522 0.0000 
1676 0.1451 0.8549 0.0000 
1677 0.1451 0.8549 0.0000 
1678 0.1447 0.8552 0.0000 
1679 0.1458 0.8542 0.0000 
1680 0.1454 0.8546 0.0000 
1681 0.1459 0.8541 0.0000 
1682 0.1439 0.8561 0.0000 
1683 0.1446 0.8554 0.0000 
1684 0.1438 0.8562 0.0000 
1685 0.1440 0.8560 0.0000 
1686 0.1436 0.8563 0.0000 
1687 0.1441 0.8559 0.0000 
1688 0.1435 0.8565 0.0000 
1689 0.1427 0.8573 0.0000 
1690 0.1441 0.8559 0.0000 
1691 0.1428 0.8572 0.0000 
1692 0.1434 0.8566 0.0000 
1693 0.1459 0.8541 0.0000 
1694 0.1465 0.8535 0.0000 
1695 0.1465 0.8535 0.0000 
1696 0.1473 0.8527 0.0000 
1697 0.1470 0.8529 0.0000 
1698 0.1491 0.8509 0.0000 
1699 0.1504 0.8496 0.0000 
1700 0.1527 0.8473 0.0000 
1701 0.1536 0.8464 0.0000 
1702 0.1530 0.8470 0.0000 
1703 0.1548 0.8452 0.0000 
1704 0.1550 0.8450 0.0000 
1705 0.1537 0.8463 0.0000 
1706 0.1522 0.8478 0.0000 
1707 0.1527 0.8473 0.0000 
1708 0.1545 0.8456 0.0000 
1709 0.1554 0.8446 0.0000 
1710 0.1561 0.8439 0.0000 
1711 0.1562 0.8438 0.0000 
1712 0.1548 0.8451 0.0000 
1713 0.1530 0.8470 0.0000 
1714 0.1515 0.8485 0.0000 
1715 0.1513 0.8487 0.0000 
1716 0.1505 0.8495 0.0000 
1717 0.1499 0.8501 0.0000 
1718 0.1505 0.8495 0.0000 
1719 0.1494 0.8506 0.0000 
1720 0.1515 0.8485 0.0000 
1721 0.1524 0.8476 0.0000 
1722 0.1521 0.8479 0.0000 
1723 0.1533 0.8467 0.0000 
1724 0.1525 0.8476 0.0000 
1725 0.1525 0.8475 0.0000 
1726 0.1540 0.8460 0.0000 
1727 0.1529 0.8471 0.0000 
1728 0.1524 0.8477 0.0000 
1729 0.1532 0.8468 0.0000 
1730 0.1525 0.8476 0.0000 
1731 0.1533 0.8467 0.0000 
1732 0.1539 0.8461 0.0000 
1733 0.1538 0.8462 0.0000 
1734 0.1543 0.8457 0.0000 
1735 0.1542 0.8458 0.0000 
1736 0.1559 0.8441 0.0000 
1737 0.1560 0.8440 0.0000 
1738 0.1578 0.8422 0.0000 
1739 0.1600 0.8400 0.0000 
1740 0.1617 0.8383 0.0000 
1741 0.1618 0.8382 0.0000 
1742 0.1608 0.8391 0.0000 
1743 0.1604 0.8396 0.0000 
1744 0.1597 0.8403 0.0000 
1745 0.1591 0.8409 0.0000 
1746 0.1603 0.8397 0.0000 
1747 0.1603 0.8397 0.0000 
1748 0.1603 0.8397 0.0000 
1749 0.1588 0.8412 0.0000 
1750 0.1592 0.8408 0.0000 
1751 0.1593 0.8407 0.0000 
1752 0.1589 0.8411 0.0000 
1753 0.1574 0.8426 0.0000 
1754 0.1570 0.8430 0.0000 
1755 0.1573 0.8427 0.0000 
1756 0.1565 0.8436 0.0000 
1757 0.1567 0.8433 0.0000 
1758 0.1560 0.8440 0.0000 
1759 0.1549 0.8451 0.0000 
1760 0.1529 0.8471 0.0000 
1761 0.1519 0.8481 0.0000 
1762 0.1509 0.8491 0.0000 
1763 0.1488 0.8512 0.0000 
1764 0.1481 0.8519 0.0000 
1765 0.1479 0.8521 0.0000 
1766 0.1474 0.8526 0.0000 
1767 0.1472 0.8528 0.0000 
1768 0.1479 0.8521 0.0000 
1769 0.1486 0.8514 0.0000 
1770 0.1488 0.8512 0.0000 
1771 0.1515 0.8485 0.0000 
1772 0.1524 0.8477 0.0000 
1773 0.1521 0.8479 0.0000 
1774 0.1514 0.8486 0.0000 
1775 0.1507 0.8493 0.0000 
1776 0.1510 0.8489 0.0000 
1777 0.1498 0.8502 0.0000 
1778 0.1478 0.8522 0.0000 
1779 0.1482 0.8518 0.0000 
1780 0.1490 0.8510 0.0000 
1781 0.1496 0.8504 0.0000 
1782 0.1494 0.8506 0.0000 
1783 0.1504 0.8497 0.0000 
1784 0.1512 0.8488 0.0000 
1785 0.1529 0.8471 0.0000 
1786 0.1522 0.8478 0.0000 
1787 0.1533 0.8467 0.0000 
1788 0.1534 0.8466 0.0000 
1789 0.1535 0.8465 0.0000 
1790 0.1538 0.8462 0.0000 
1791 0.1530 0.8470 0.0000 
1792 0.1529 0.8471 0.0000 
1793 0.1538 0.8462 0.0000 
1794 0.1527 0.8473 0.0000 
1795 0.1510 0.8490 0.0000 
1796 0.1498 0.8502 0.0000 
1797 0.1482 0.8518 0.0000 
1798 0.1485 0.8515 0.0000 
1799 0.1495 0.8505 0.0000 
1800 0.1488 0.8512 0.0000 
1801 0.1488 0.8512 0.0000 
1802 0.1494 0.8507 0.0000 
1803 0.1502 0.8498 0.0000 
1804 0.1497 0.8503 0.0000 
1805 0.1499 0.8501 0.0000 
1806 0.1483 0.8517 0.0000 
1807 0.1469 0.8531 0.0000 
1808 0.1456 0.8544 0.0000 
1809 0.1465 0.8535 0.0000 
1810 0.1478 0.8522 0.0000 
1811 0.1481 0.8519 0.0000 
1812 0.1470 0.8529 0.0000 
1813 0.1466 0.8535 0.0000 
1814 0.1466 0.8534 0.0000 
1815 0.1446 0.8554 0.0000 
1816 0.1450 0.8550 0.0000 
1817 0.1441 0.8559 0.0000 
1818 0.1431 0.8569 0.0000 
1819 0.1424 0.8576 0.0000 
1820 0.1422 0.8578 0.0000 
1821 0.1430 0.8570 0.0000 
1822 0.1440 0.8560 0.0000 
1823 0.1446 0.8555 0.0000 
1824 0.1443 0.8557 0.0000 
1825 0.1447 0.8554 0.0000 
1826 0.1449 0.8551 0.0000 
1827 0.1454 0.8546 0.0000 
1828 0.1449 0.8551 0.0000 
1829 0.1436 0.8565 0.0000 
1830 0.1452 0.8548 0.0000 
1831 0.1452 0.8548 0.0000 
1832 0.1438 0.8562 0.0000 
1833 0.1424 0.8576 0.0000 
1834 0.1412 0.8588 0.0000 
1835 0.1414 0.8586 0.0000 
1836 0.1404 0.8597 0.0000 
1837 0.1383 0.8617 0.0000 
1838 0.1388 0.8612 0.0000 
1839 0.1369 0.8630 0.0000 
1840 0.1366 0.8633 0.0000 
1841 0.1379 0.8621 0.0000 
1842 0.1384 0.8617 0.0000 
1843 0.1376 0.8624 0.0000 
1844 0.1380 0.8620 0.0000 
1845 0.1376 0.8624 0.0000 
1846 0.1381 0.8619 0.0000 
1847 0.1384 0.8617 0.0000 
1848 0.1391 0.8609 0.0000 
1849 0.1389 0.8611 0.0000 
1850 0.1388 0.8612 0.0000 
1851 0.1404 0.8596 0.0000 
1852 0.1405 0.8595 0.0000 
1853 0.1413 0.8587 0.0000 
1854 0.1420 0.8580 0.0000 
1855 0.1428 0.8572 0.0000 
1856 0.1435 0.8565 0.0000 
1857 0.1441 0.8559 0.0000 
1858 0.1443 0.8557 0.0000 
1859 0.1441 0.8559 0.0000 
1860 0.1443 0.8557 0.0000 
1861 0.1445 0.8555 0.0000 
1862 0.1440 0.8560 0.0000 
1863 0.1449 0.8551 0.0000 
1864 0.1463 0.8537 0.0000 
1865 0.1467 0.8533 0.0000 
1866 0.1453 0.8547 0.0000 
1867 0.1446 0.8555 0.0000 
1868 0.1441 0.8559 0.0000 
1869 0.1445 0.8555 0.0000 
1870 0.1446 0.8554 0.0000 
1871 0.1456 0.8545 0.0000 
1872 0.1472 0.8528 0.0000 
1873 0.1465 0.8535 0.0000 
1874 0.1462 0.8538 0.0000 
1875 0.1461 0.8539 0.0000 
1876 0.1461 0.8539 0.0000 
1877 0.1454 0.8546 0.0000 
1878 0.1453 0.8547 0.0000 
1879 0.1446 0.8554 0.0000 
1880 0.1449 0.8551 0.0000 
1881 0.1444 0.8556 0.0000 
1882 0.1454 0.8546 0.0000 
1883 0.1459 0.8541 0.0000 
1884 0.1467 0.8533 0.0000 
1885 0.1459 0.8541 0.0000 
1886 0.1461 0.8539 0.0000 
1887 0.1470 0.8530 0.0000 
1888 0.1472 0.8528 0.0000 
1889 0.1480 0.8520 0.0000 
1890 0.1507 0.8492 0.0000 
1891 0.1529 0.8471 0.0000 
1892 0.1538 0.8462 0.0000 
1893 0.1541 0.8459 0.0000 
1894 0.1551 0.8449 0.0000 
1895 0.1545 0.8456 0.0000 
1896 0.1527 0.8472 0.0000 
1897 0.1523 0.8477 0.0000 
1898 0.1530 0.8469 0.0000 
1899 0.1530 0.8469 0.0000 
1900 0.1535 0.8465 0.0000 
1901 0.1514 0.8486 0.0000 
1902 0.1503 0.8497 0.0000 
1903 0.1492 0.8508 0.0000 
1904 0.1489 0.8510 0.0000 
1905 0.1483 0.8517 0.0000 
1906 0.1471 0.8529 0.0000 
1907 0.1484 0.8516 0.0000 
1908 0.1485 0.8515 0.0000 
1909 0.1475 0.8525 0.0000 
1910 0.1470 0.8530 0.0000 
1911 0.1471 0.8529 0.0000 
1912 0.1480 0.8520 0.0000 
1913 0.1479 0.8521 0.0000 
1914 0.1479 0.8521 0.0000 
1915 0.1478 0.8522 0.0000 
1916 0.1484 0.8516 0.0000 
1917 0.1488 0.8512 0.0000 
1918 0.1488 0.8512 0.0000 
1919 0.1476 0.8524 0.0000 
1920 0.1462 0.8538 0.0000 
1921 0.1456 0.8544 0.0000 
1922 0.1447 0.8553 0.0000 
1923 0.1434 0.8566 0.0000 
1924 0.1438 0.8562 0.0000 
1925 0.1452 0.8548 0.0000 
1926 0.1436 0.8563 0.0000 
1927 0.1425 0.8575 0.0000 
1928 0.1441 0.8559 0.0000 
1929 0.1429 0.8571 0.0000 
1930 0.1437 0.8562 0.0000 
1931 0.1442 0.8558 0.0000 
1932 0.1453 0.8547 0.0000 
1933 0.1466 0.8534 0.0000 
1934 0.1455 0.8545 0.0000 
1935 0.1442 0.8558 0.0000 
1936 0.1445 0.8555 0.0000 
1937 0.1462 0.8538 0.0000 
1938 0.1483 0.8517 0.0000 
1939 0.1454 0.8546 0.0000 
1940 0.1451 0.8549 0.0000 
1941 0.1474 0.8526 0.0000 
1942 0.1484 0.8516 0.0000 
1943 0.1487 0.8513 0.0000 
1944 0.1486 0.8514 0.0000 
1945 0.1484 0.8517 0.0000 
1946 0.1491 0.8509 0.0000 
1947 0.1494 0.8507 0.0000 
1948 0.1494 0.8506 0.0000 
1949 0.1492 0.8508 0.0000 
1950 0.1484 0.8516 0.0000 
1951 0.1470 0.8530 0.0000 
1952 0.1457 0.8544 0.0000 
1953 0.1473 0.8527 0.0000 
1954 0.1484 0.8516 0.0000 
1955 0.1474 0.8526 0.0000 
1956 0.1484 0.8516 0.0000 
1957 0.1494 0.8506 0.0000 
1958 0.1497 0.8503 0.0000 
1959 0.1488 0.8512 0.0000 
1960 0.1507 0.8492 0.0000 
1961 0.1516 0.8484 0.0000 
1962 0.1507 0.8493 0.0000 
1963 0.1489 0.8511 0.0000 
1964 0.1473 0.8527 0.0000 
1965 0.1470 0.8530 0.0000 
1966 0.1455 0.8545 0.0000 
1967 0.1453 0.8547 0.0000 
1968 0.1453 0.8547 0.0000 
1969 0.1452 0.8548 0.0000 
1970 0.1449 0.8551 0.0000 
1971 0.1432 0.8568 0.0000 
1972 0.1417 0.8582 0.0000 
1973 0.1425 0.8575 0.0000 
1974 0.1434 0.8566 0.0000 
1975 0.1444 0.8557 0.0000 
1976 0.1426 0.8574 0.0000 
1977 0.1426 0.8574 0.0000 
1978 0.1409 0.8591 0.0000 
1979 0.1409 0.8591 0.0000 
1980 0.1381 0.8619 0.0000 
1981 0.1382 0.8618 0.0000 
1982 0.1379 0.8621 0.0000 
1983 0.1384 0.8616 0.0000 
1984 0.1381 0.8619 0.0000 
1985 0.1397 0.8603 0.0000 
1986 0.1396 0.8604 0.0000 
1987 0.1382 0.8618 0.0000 
1988 0.1386 0.8614 0.0000 
1989 0.1392 0.8608 0.0000 
1990 0.1402 0.8598 0.0000 
1991 0.1413 0.8587 0.0000 
1992 0.1425 0.8575 0.0000 
1993 0.1444 0.8556 0.0000 
1994 0.1452 0.8548 0.0000 
1995 0.1462 0.8538 0.0000 
1996 0.1478 0.8522 0.0000 
1997 0.1456 0.8545 0.0000 
1998 0.1454 0.8546 0.0000 
1999 0.1448 0.8552 0.0000 
