0 0.5031 0.4969 0.0000 
1 0.3234 0.6766 0.0000 
2 0.1990 0.8010 0.0000 
3 0.1241 0.8759 0.0000 
4 0.0869 0.9131 0.0000 
5 0.0675 0.9325 0.0000 
6 0.0582 0.9418 0.0000 
7 0.0509 0.9491 0.0000 
8 0.0508 0.9492 0.0000 
9 0.0516 0.9484 0.0000 
10 0.0493 0.9507 0.0000 
11 0.0501 0.9499 0.0000 
12 0.0520 0.9480 0.0000 
13 0.0518 0.9482 0.0000 
14 0.0532 0.9468 0.0000 
15 0.0566 0.9434 0.0000 
16 0.0591 0.9409 0.0000 
17 0.0597 0.9403 0.0000 
18 0.0627 0.9373 0.0000 
19 0.0655 0.9345 0.0000 
20 0.0669 0.9331 0.0000 
21 0.0670 0.9330 0.0000 
22 0.0698 0.9302 0.0000 
23 0.0697 0.9303 0.0000 
24 0.0687 0.9313 0.0000 
25 0.0703 0.9297 0.0000 
26 0.0708 0.9292 0.0000 
27 0.0719 0.9281 0.0000 
28 0.0740 0.9260 0.0000 
29 0.0756 0.9244 0.0000 
30 0.0767 0.9233 0.0000 
31 0.0777 0.9223 0.0000 
32 0.0814 0.9186 0.0000 
33 0.0862 0.9138 0.0000 
34 0.0849 0.9151 0.0000 
35 0.0848 0.9152 0.0000 
36 0.0869 0.9131 0.0000 
37 0.0896 0.9104 0.0000 
38 0.0888 0.9112 0.0000 
39 0.0872 0.9128 0.0000 
40 0.0881 0.9119 0.0000 
41 0.0885 0.9115 0.0000 
42 0.0908 0.9092 0.0000 
43 0.0927 0.9073 0.0000 
44 0.0953 0.9047 0.0000 
45 0.0987 0.9013 0.0000 
46 0.1023 0.8977 0.0000 
47 0.1051 0.8949 0.0000 
48 0.1068 0.8932 0.0000 
49 0.1094 0.8906 0.0000 
50 0.1137 0.8863 0.0000 
51 0.1145 0.8855 0.0000 
52 0.1162 0.8838 0.0000 
53 0.1150 0.8850 0.0000 
54 0.1177 0.8823 0.0000 
55 0.1181 0.8819 0.0000 
56 0.1218 0.8782 0.0000 
57 0.1234 0.8766 0.0000 
58 0.1269 0.8731 0.0000 
59 0.1287 0.8713 0.0000 
60 0.1325 0.8675 0.0000 
61 0.1346 0.8654 0.0000 
62 0.1395 0.8605 0.0000 
63 0.1428 0.8572 0.0000 
64 0.1426 0.8574 0.0000 
65 0.1442 0.8558 0.0000 
66 0.1448 0.8552 0.0000 
67 0.1464 0.8536 0.0000 
68 0.1472 0.8528 0.0000 
69 0.1481 0.8519 0.0000 
70 0.1520 0.8480 0.0000 
71 0.1543 0.8457 0.0000 
72 0.1557 0.8443 0.0000 
73 0.1576 0.8424 0.0000 
74 0.1583 0.8417 0.0000 
75 0.1594 0.8406 0.0000 
76 0.1583 0.8417 0.0000 
77 0.1609 0.8391 0.0000 
78 0.1648 0.8352 0.0000 
79 0.1657 0.8343 0.0000 
80 0.1667 0.8333 0.0000 
81 0.1679 0.8321 0.0000 
82 0.1712 0.8288 0.0000 
83 0.1698 0.8302 0.0000 
84 0.1701 0.8299 0.0000 
85 0.1699 0.8301 0.0000 
86 0.1718 0.8282 0.0000 
87 0.1748 0.8252 0.0000 
88 0.1780 0.8220 0.0000 
89 0.1820 0.8180 0.0000 
90 0.1863 0.8137 0.0000 
91 0.1851 0.8149 0.0000 
92 0.1883 0.8117 0.0000 
93 0.1877 0.8123 0.0000 
94 0.1867 0.8133 0.0000 
95 0.1870 0.8130 0.0000 
96 0.1883 0.8117 0.0000 
97 0.1869 0.8131 0.0000 
98 0.1878 0.8122 0.0000 
99 0.1870 0.8130 0.0000 
100 0.1869 0.8131 0.0000 
101 0.1886 0.8114 0.0000 
102 0.1858 0.8142 0.0000 
103 0.1870 0.8130 0.0000 
104 0.1873 0.8127 0.0000 
105 0.1881 0.8119 0.0000 
106 0.1907 0.8093 0.0000 
107 0.1909 0.8091 0.0000 
108 0.1892 0.8108 0.0000 
109 0.1905 0.8095 0.0000 
110 0.1907 0.8093 0.0000 
111 0.1939 0.8061 0.0000 
112 0.1950 0.8050 0.0000 
113 0.1978 0.8022 0.0000 
114 0.2025 0.7975 0.0000 
115 0.2026 0.7974 0.0000 
116 0.2009 0.7991 0.0000 
117 0.2050 0.7950 0.0000 
118 0.2100 0.7900 0.0000 
119 0.2120 0.7880 0.0000 
120 0.2147 0.7853 0.0000 
121 0.2113 0.7887 0.0000 
122 0.2134 0.7866 0.0000 
123 0.2129 0.7871 0.0000 
124 0.2120 0.7880 0.0000 
125 0.2104 0.7896 0.0000 
126 0.2087 0.7913 0.0000 
127 0.2075 0.7925 0.0000 
128 0.2098 0.7902 0.0000 
129 0.2128 0.7872 0.0000 
130 0.2115 0.7885 0.0000 
131 0.2118 0.7882 0.0000 
132 0.2123 0.7877 0.0000 
133 0.2143 0.7857 0.0000 
134 0.2190 0.7810 0.0000 
135 0.2222 0.7778 0.0000 
136 0.2277 0.7723 0.0000 
137 0.2314 0.7686 0.0000 
138 0.2357 0.7643 0.0000 
139 0.2367 0.7633 0.0000 
140 0.2435 0.7565 0.0000 
141 0.2478 0.7522 0.0000 
142 0.2517 0.7483 0.0000 
143 0.2545 0.7455 0.0000 
144 0.2568 0.7432 0.0000 
145 0.2573 0.7427 0.0000 
146 0.2610 0.7390 0.0000 
147 0.2605 0.7395 0.0000 
148 0.2615 0.7385 0.0000 
149 0.2593 0.7407 0.0000 
150 0.2620 0.7380 0.0000 
151 0.2639 0.7361 0.0000 
152 0.2628 0.7372 0.0000 
153 0.2723 0.7277 0.0000 
154 0.2759 0.7241 0.0000 
155 0.2784 0.7216 0.0000 
156 0.2812 0.7188 0.0000 
157 0.2829 0.7171 0.0000 
158 0.2842 0.7158 0.0000 
159 0.2860 0.7140 0.0000 
160 0.2897 0.7103 0.0000 
161 0.2893 0.7107 0.0000 
162 0.2899 0.7101 0.0000 
163 0.2935 0.7065 0.0000 
164 0.2969 0.7031 0.0000 
165 0.3032 0.6968 0.0000 
166 0.3052 0.6948 0.0000 
167 0.3100 0.6900 0.0000 
168 0.3152 0.6848 0.0000 
169 0.3169 0.6831 0.0000 
170 0.3200 0.6800 0.0000 
171 0.3192 0.6808 0.0000 
172 0.3195 0.6805 0.0000 
173 0.3238 0.6762 0.0000 
174 0.3251 0.6749 0.0000 
175 0.3267 0.6733 0.0000 
176 0.3293 0.6707 0.0000 
177 0.3292 0.6708 0.0000 
178 0.3350 0.6650 0.0000 
179 0.3377 0.6623 0.0000 
180 0.3385 0.6615 0.0000 
181 0.3381 0.6619 0.0000 
182 0.3352 0.6648 0.0000 
183 0.3384 0.6616 0.0000 
184 0.3387 0.6613 0.0000 
185 0.3422 0.6578 0.0000 
186 0.3389 0.6611 0.0000 
187 0.3403 0.6597 0.0000 
188 0.3416 0.6584 0.0000 
189 0.3451 0.6549 0.0000 
190 0.3488 0.6512 0.0000 
191 0.3468 0.6532 0.0000 
192 0.3458 0.6542 0.0000 
193 0.3482 0.6518 0.0000 
194 0.3511 0.6489 0.0000 
195 0.3549 0.6451 0.0000 
196 0.3556 0.6444 0.0000 
197 0.3598 0.6402 0.0000 
198 0.3555 0.6445 0.0000 
199 0.3598 0.6402 0.0000 
200 0.3578 0.6422 0.0000 
201 0.3574 0.6426 0.0000 
202 0.3593 0.6407 0.0000 
203 0.3587 0.6413 0.0000 
204 0.3597 0.6403 0.0000 
205 0.3635 0.6365 0.0000 
206 0.3617 0.6383 0.0000 
207 0.3619 0.6381 0.0000 
208 0.3587 0.6413 0.0000 
209 0.3582 0.6418 0.0000 
210 0.3630 0.6370 0.0000 
211 0.3607 0.6393 0.0000 
212 0.3670 0.6330 0.0000 
213 0.3688 0.6312 0.0000 
214 0.3715 0.6285 0.0000 
215 0.3735 0.6265 0.0000 
216 0.3737 0.6263 0.0000 
217 0.3705 0.6295 0.0000 
218 0.3744 0.6256 0.0000 
219 0.3752 0.6248 0.0000 
220 0.3767 0.6233 0.0000 
221 0.3762 0.6238 0.0000 
222 0.3752 0.6248 0.0000 
223 0.3765 0.6235 0.0000 
224 0.3803 0.6197 0.0000 
225 0.3795 0.6205 0.0000 
226 0.3868 0.6132 0.0000 
227 0.3898 0.6102 0.0000 
228 0.3858 0.6142 0.0000 
229 0.3889 0.6111 0.0000 
230 0.3930 0.6070 0.0000 
231 0.3914 0.6086 0.0000 
232 0.3925 0.6075 0.0000 
233 0.3913 0.6087 0.0000 
234 0.3937 0.6063 0.0000 
235 0.3952 0.6048 0.0000 
236 0.3924 0.6076 0.0000 
237 0.3922 0.6078 0.0000 
238 0.3943 0.6057 0.0000 
239 0.3948 0.6052 0.0000 
240 0.3926 0.6074 0.0000 
241 0.3941 0.6059 0.0000 
242 0.3961 0.6039 0.0000 
243 0.3958 0.6042 0.0000 
244 0.3925 0.6075 0.0000 
245 0.3929 0.6071 0.0000 
246 0.3903 0.6097 0.0000 
247 0.3939 0.6061 0.0000 
248 0.3981 0.6019 0.0000 
249 0.3958 0.6042 0.0000 
250 0.3957 0.6043 0.0000 
251 0.3963 0.6037 0.0000 
252 0.3975 0.6025 0.0000 
253 0.3971 0.6029 0.0000 
254 0.3949 0.6051 0.0000 
255 0.3936 0.6064 0.0000 
256 0.3880 0.6120 0.0000 
257 0.3896 0.6104 0.0000 
258 0.3899 0.6101 0.0000 
259 0.3869 0.6131 0.0000 
260 0.3851 0.6149 0.0000 
261 0.3943 0.6057 0.0000 
262 0.3894 0.6106 0.0000 
263 0.3890 0.6110 0.0000 
264 0.3933 0.6067 0.0000 
265 0.3944 0.6056 0.0000 
266 0.3934 0.6066 0.0000 
267 0.3952 0.6048 0.0000 
268 0.3969 0.6031 0.0000 
269 0.3935 0.6065 0.0000 
270 0.3932 0.6068 0.0000 
271 0.3913 0.6087 0.0000 
272 0.3935 0.6065 0.0000 
273 0.3972 0.6028 0.0000 
274 0.4015 0.5985 0.0000 
275 0.4029 0.5971 0.0000 
276 0.4041 0.5959 0.0000 
277 0.4022 0.5978 0.0000 
278 0.4015 0.5985 0.0000 
279 0.4031 0.5969 0.0000 
280 0.4007 0.5993 0.0000 
281 0.4040 0.5960 0.0000 
282 0.4049 0.5951 0.0000 
283 0.4028 0.5972 0.0000 
284 0.4022 0.5978 0.0000 
285 0.4025 0.5975 0.0000 
286 0.3984 0.6016 0.0000 
287 0.4028 0.5972 0.0000 
288 0.4043 0.5957 0.0000 
289 0.4052 0.5948 0.0000 
290 0.4069 0.5931 0.0000 
291 0.4086 0.5914 0.0000 
292 0.4083 0.5917 0.0000 
293 0.4055 0.5945 0.0000 
294 0.4032 0.5968 0.0000 
295 0.4008 0.5992 0.0000 
296 0.4058 0.5942 0.0000 
297 0.4086 0.5914 0.0000 
298 0.4080 0.5920 0.0000 
299 0.4074 0.5926 0.0000 
300 0.4144 0.5856 0.0000 
301 0.4216 0.5784 0.0000 
302 0.4224 0.5776 0.0000 
303 0.4274 0.5726 0.0000 
304 0.4296 0.5704 0.0000 
305 0.4302 0.5698 0.0000 
306 0.4293 0.5707 0.0000 
307 0.4310 0.5690 0.0000 
308 0.4353 0.5647 0.0000 
309 0.4381 0.5619 0.0000 
310 0.4374 0.5626 0.0000 
311 0.4351 0.5649 0.0000 
312 0.4379 0.5621 0.0000 
313 0.4393 0.5607 0.0000 
314 0.4375 0.5625 0.0000 
315 0.4362 0.5638 0.0000 
316 0.4382 0.5618 0.0000 
317 0.4362 0.5638 0.0000 
318 0.4343 0.5657 0.0000 
319 0.4339 0.5661 0.0000 
320 0.4338 0.5662 0.0000 
321 0.4345 0.5655 0.0000 
322 0.4313 0.5687 0.0000 
323 0.4320 0.5680 0.0000 
324 0.4332 0.5668 0.0000 
325 0.4346 0.5654 0.0000 
326 0.4310 0.5690 0.0000 
327 0.4335 0.5665 0.0000 
328 0.4252 0.5748 0.0000 
329 0.4253 0.5747 0.0000 
330 0.4136 0.5864 0.0000 
331 0.4175 0.5825 0.0000 
332 0.4198 0.5802 0.0000 
333 0.4261 0.5739 0.0000 
334 0.4284 0.5716 0.0000 
335 0.4229 0.5771 0.0000 
336 0.4252 0.5748 0.0000 
337 0.4291 0.5709 0.0000 
338 0.4274 0.5726 0.0000 
339 0.4246 0.5754 0.0000 
340 0.4231 0.5769 0.0000 
341 0.4230 0.5770 0.0000 
342 0.4214 0.5786 0.0000 
343 0.4203 0.5797 0.0000 
344 0.4149 0.5851 0.0000 
345 0.4179 0.5821 0.0000 
346 0.4206 0.5794 0.0000 
347 0.4214 0.5786 0.0000 
348 0.4246 0.5754 0.0000 
349 0.4277 0.5723 0.0000 
350 0.4295 0.5705 0.0000 
351 0.4286 0.5714 0.0000 
352 0.4309 0.5691 0.0000 
353 0.4301 0.5699 0.0000 
354 0.4286 0.5714 0.0000 
355 0.4344 0.5656 0.0000 
356 0.4314 0.5686 0.0000 
357 0.4286 0.5714 0.0000 
358 0.4267 0.5733 0.0000 
359 0.4277 0.5723 0.0000 
360 0.4315 0.5685 0.0000 
361 0.4290 0.5710 0.0000 
362 0.4294 0.5706 0.0000 
363 0.4323 0.5677 0.0000 
364 0.4334 0.5666 0.0000 
365 0.4393 0.5607 0.0000 
366 0.4401 0.5599 0.0000 
367 0.4409 0.5591 0.0000 
368 0.4433 0.5567 0.0000 
369 0.4432 0.5568 0.0000 
370 0.4422 0.5578 0.0000 
371 0.4415 0.5585 0.0000 
372 0.4411 0.5589 0.0000 
373 0.4405 0.5595 0.0000 
374 0.4402 0.5598 0.0000 
375 0.4414 0.5586 0.0000 
376 0.4450 0.5550 0.0000 
377 0.4440 0.5560 0.0000 
378 0.4465 0.5535 0.0000 
379 0.4470 0.5530 0.0000 
380 0.4477 0.5523 0.0000 
381 0.4546 0.5454 0.0000 
382 0.4542 0.5458 0.0000 
383 0.4541 0.5459 0.0000 
384 0.4584 0.5416 0.0000 
385 0.4542 0.5458 0.0000 
386 0.4577 0.5423 0.0000 
387 0.4633 0.5367 0.0000 
388 0.4611 0.5389 0.0000 
389 0.4680 0.5320 0.0000 
390 0.4662 0.5338 0.0000 
391 0.4694 0.5306 0.0000 
392 0.4712 0.5288 0.0000 
393 0.4762 0.5238 0.0000 
394 0.4746 0.5254 0.0000 
395 0.4786 0.5214 0.0000 
396 0.4805 0.5195 0.0000 
397 0.4848 0.5152 0.0000 
398 0.4857 0.5143 0.0000 
399 0.4869 0.5131 0.0000 
400 0.4850 0.5150 0.0000 
401 0.4819 0.5181 0.0000 
402 0.4814 0.5186 0.0000 
403 0.4764 0.5236 0.0000 
404 0.4783 0.5217 0.0000 
405 0.4784 0.5216 0.0000 
406 0.4813 0.5187 0.0000 
407 0.4759 0.5241 0.0000 
408 0.4799 0.5201 0.0000 
409 0.4813 0.5187 0.0000 
410 0.4877 0.5123 0.0000 
411 0.4870 0.5130 0.0000 
412 0.4843 0.5157 0.0000 
413 0.4838 0.5162 0.0000 
414 0.4825 0.5175 0.0000 
415 0.4885 0.5115 0.0000 
416 0.4923 0.5077 0.0000 
417 0.4942 0.5058 0.0000 
418 0.4949 0.5051 0.0000 
419 0.5002 0.4998 0.0000 
420 0.5029 0.4971 0.0000 
421 0.5005 0.4995 0.0000 
422 0.4988 0.5012 0.0000 
423 0.5008 0.4992 0.0000 
424 0.4964 0.5036 0.0000 
425 0.4977 0.5023 0.0000 
426 0.5007 0.4993 0.0000 
427 0.5048 0.4952 0.0000 
428 0.5021 0.4979 0.0000 
429 0.5047 0.4953 0.0000 
430 0.5094 0.4906 0.0000 
431 0.5098 0.4902 0.0000 
432 0.5103 0.4897 0.0000 
433 0.5080 0.4920 0.0000 
434 0.5069 0.4931 0.0000 
435 0.5038 0.4962 0.0000 
436 0.5000 0.5000 0.0000 
437 0.5010 0.4990 0.0000 
438 0.5009 0.4991 0.0000 
439 0.5034 0.4966 0.0000 
440 0.4972 0.5028 0.0000 
441 0.5003 0.4997 0.0000 
442 0.5014 0.4986 0.0000 
443 0.5056 0.4944 0.0000 
444 0.5070 0.4930 0.0000 
445 0.5084 0.4916 0.0000 
446 0.5013 0.4987 0.0000 
447 0.5005 0.4995 0.0000 
448 0.4956 0.5044 0.0000 
449 0.4979 0.5021 0.0000 
450 0.4975 0.5025 0.0000 
451 0.4957 0.5043 0.0000 
452 0.4962 0.5038 0.0000 
453 0.4933 0.5067 0.0000 
454 0.4939 0.5061 0.0000 
455 0.4960 0.5040 0.0000 
456 0.4943 0.5057 0.0000 
457 0.4905 0.5095 0.0000 
458 0.4885 0.5115 0.0000 
459 0.4926 0.5074 0.0000 
460 0.4942 0.5058 0.0000 
461 0.4933 0.5067 0.0000 
462 0.4937 0.5063 0.0000 
463 0.4921 0.5079 0.0000 
464 0.4966 0.5034 0.0000 
465 0.5027 0.4973 0.0000 
466 0.4983 0.5017 0.0000 
467 0.5003 0.4997 0.0000 
468 0.5016 0.4984 0.0000 
469 0.5003 0.4997 0.0000 
470 0.5051 0.4949 0.0000 
471 0.5036 0.4964 0.0000 
472 0.5074 0.4926 0.0000 
473 0.5091 0.4909 0.0000 
474 0.5082 0.4918 0.0000 
475 0.5102 0.4898 0.0000 
476 0.5104 0.4896 0.0000 
477 0.5086 0.4914 0.0000 
478 0.5107 0.4893 0.0000 
479 0.5091 0.4909 0.0000 
480 0.5124 0.4876 0.0000 
481 0.5145 0.4855 0.0000 
482 0.5143 0.4857 0.0000 
483 0.5126 0.4874 0.0000 
484 0.5158 0.4842 0.0000 
485 0.5194 0.4806 0.0000 
486 0.5183 0.4817 0.0000 
487 0.5147 0.4853 0.0000 
488 0.5107 0.4893 0.0000 
489 0.5126 0.4874 0.0000 
490 0.5100 0.4900 0.0000 
491 0.5111 0.4889 0.0000 
492 0.5110 0.4890 0.0000 
493 0.5117 0.4883 0.0000 
494 0.5128 0.4872 0.0000 
495 0.5114 0.4886 0.0000 
496 0.5156 0.4844 0.0000 
497 0.5080 0.4920 0.0000 
498 0.5027 0.4973 0.0000 
499 0.4949 0.5051 0.0000 
500 0.4977 0.5023 0.0000 
501 0.4987 0.5013 0.0000 
502 0.4968 0.5032 0.0000 
503 0.4929 0.5071 0.0000 
504 0.4924 0.5076 0.0000 
505 0.4916 0.5084 0.0000 
506 0.4959 0.5041 0.0000 
507 0.4930 0.5070 0.0000 
508 0.4911 0.5089 0.0000 
509 0.4878 0.5122 0.0000 
510 0.4896 0.5104 0.0000 
511 0.4903 0.5097 0.0000 
512 0.4906 0.5094 0.0000 
513 0.4924 0.5076 0.0000 
514 0.4922 0.5078 0.0000 
515 0.4891 0.5109 0.0000 
516 0.4860 0.5140 0.0000 
517 0.4890 0.5110 0.0000 
518 0.4925 0.5075 0.0000 
519 0.4945 0.5055 0.0000 
520 0.4941 0.5059 0.0000 
521 0.4960 0.5040 0.0000 
522 0.4947 0.5053 0.0000 
523 0.4946 0.5054 0.0000 
524 0.4979 0.5021 0.0000 
525 0.4989 0.5011 0.0000 
526 0.4969 0.5031 0.0000 
527 0.4956 0.5044 0.0000 
528 0.4967 0.5033 0.0000 
529 0.4919 0.5081 0.0000 
530 0.4892 0.5108 0.0000 
531 0.4934 0.5066 0.0000 
532 0.4892 0.5108 0.0000 
533 0.4947 0.5053 0.0000 
534 0.4959 0.5041 0.0000 
535 0.4929 0.5071 0.0000 
536 0.4928 0.5072 0.0000 
537 0.4883 0.5117 0.0000 
538 0.4926 0.5074 0.0000 
539 0.4922 0.5078 0.0000 
540 0.4924 0.5076 0.0000 
541 0.4976 0.5024 0.0000 
542 0.4969 0.5031 0.0000 
543 0.4930 0.5070 0.0000 
544 0.4966 0.5034 0.0000 
545 0.5004 0.4996 0.0000 
546 0.4988 0.5012 0.0000 
547 0.5013 0.4987 0.0000 
548 0.5039 0.4961 0.0000 
549 0.5027 0.4973 0.0000 
550 0.5008 0.4992 0.0000 
551 0.5030 0.4970 0.0000 
552 0.5042 0.4958 0.0000 
553 0.5047 0.4953 0.0000 
554 0.5124 0.4876 0.0000 
555 0.5092 0.4908 0.0000 
556 0.5084 0.4916 0.0000 
557 0.5084 0.4916 0.0000 
558 0.5133 0.4867 0.0000 
559 0.5099 0.4901 0.0000 
560 0.5071 0.4929 0.0000 
561 0.5094 0.4906 0.0000 
562 0.5071 0.4929 0.0000 
563 0.5066 0.4934 0.0000 
564 0.5048 0.4952 0.0000 
565 0.4989 0.5011 0.0000 
566 0.5013 0.4987 0.0000 
567 0.5037 0.4963 0.0000 
568 0.5010 0.4990 0.0000 
569 0.4943 0.5057 0.0000 
570 0.4997 0.5003 0.0000 
571 0.4990 0.5010 0.0000 
572 0.4918 0.5082 0.0000 
573 0.4934 0.5066 0.0000 
574 0.4948 0.5052 0.0000 
575 0.4927 0.5073 0.0000 
576 0.4901 0.5099 0.0000 
577 0.4932 0.5068 0.0000 
578 0.4951 0.5049 0.0000 
579 0.4973 0.5027 0.0000 
580 0.5015 0.4985 0.0000 
581 0.4958 0.5042 0.0000 
582 0.4939 0.5061 0.0000 
583 0.4875 0.5125 0.0000 
584 0.4876 0.5124 0.0000 
585 0.4877 0.5123 0.0000 
586 0.4859 0.5141 0.0000 
587 0.4917 0.5083 0.0000 
588 0.4937 0.5063 0.0000 
589 0.4937 0.5063 0.0000 
590 0.4968 0.5032 0.0000 
591 0.4957 0.5043 0.0000 
592 0.4965 0.5035 0.0000 
593 0.5017 0.4983 0.0000 
594 0.5015 0.4985 0.0000 
595 0.4991 0.5009 0.0000 
596 0.4980 0.5020 0.0000 
597 0.4981 0.5019 0.0000 
598 0.4959 0.5041 0.0000 
599 0.4973 0.5027 0.0000 
600 0.4951 0.5049 0.0000 
601 0.4982 0.5018 0.0000 
602 0.4990 0.5010 0.0000 
603 0.4978 0.5022 0.0000 
604 0.4960 0.5040 0.0000 
605 0.5015 0.4985 0.0000 
606 0.5057 0.4943 0.0000 
607 0.5108 0.4892 0.0000 
608 0.5132 0.4868 0.0000 
609 0.5177 0.4823 0.0000 
610 0.5211 0.4789 0.0000 
611 0.5196 0.4804 0.0000 
612 0.5228 0.4772 0.0000 
613 0.5181 0.4819 0.0000 
614 0.5178 0.4822 0.0000 
615 0.5208 0.4792 0.0000 
616 0.5149 0.4851 0.0000 
617 0.5114 0.4886 0.0000 
618 0.5098 0.4902 0.0000 
619 0.5141 0.4859 0.0000 
620 0.5136 0.4864 0.0000 
621 0.5134 0.4866 0.0000 
622 0.5094 0.4906 0.0000 
623 0.5126 0.4874 0.0000 
624 0.5151 0.4849 0.0000 
625 0.5177 0.4823 0.0000 
626 0.5178 0.4822 0.0000 
627 0.5162 0.4838 0.0000 
628 0.5168 0.4832 0.0000 
629 0.5181 0.4819 0.0000 
630 0.5275 0.4725 0.0000 
631 0.5247 0.4753 0.0000 
632 0.5218 0.4782 0.0000 
633 0.5220 0.4780 0.0000 
634 0.5212 0.4788 0.0000 
635 0.5201 0.4799 0.0000 
636 0.5186 0.4814 0.0000 
637 0.5149 0.4851 0.0000 
638 0.5157 0.4843 0.0000 
639 0.5101 0.4899 0.0000 
640 0.5096 0.4904 0.0000 
641 0.5098 0.4902 0.0000 
642 0.5072 0.4928 0.0000 
643 0.5051 0.4949 0.0000 
644 0.5016 0.4984 0.0000 
645 0.5025 0.4975 0.0000 
646 0.4949 0.5051 0.0000 
647 0.4979 0.5021 0.0000 
648 0.4964 0.5036 0.0000 
649 0.5021 0.4979 0.0000 
650 0.5006 0.4994 0.0000 
651 0.5068 0.4932 0.0000 
652 0.5107 0.4893 0.0000 
653 0.5086 0.4914 0.0000 
654 0.5047 0.4953 0.0000 
655 0.5079 0.4921 0.0000 
656 0.5112 0.4888 0.0000 
657 0.5071 0.4929 0.0000 
658 0.5135 0.4865 0.0000 
659 0.5167 0.4833 0.0000 
660 0.5197 0.4803 0.0000 
661 0.5197 0.4803 0.0000 
662 0.5223 0.4777 0.0000 
663 0.5197 0.4803 0.0000 
664 0.5177 0.4823 0.0000 
665 0.5178 0.4822 0.0000 
666 0.5205 0.4795 0.0000 
667 0.5161 0.4839 0.0000 
668 0.5091 0.4909 0.0000 
669 0.5061 0.4939 0.0000 
670 0.5035 0.4965 0.0000 
671 0.5035 0.4965 0.0000 
672 0.5052 0.4948 0.0000 
673 0.5000 0.5000 0.0000 
674 0.5042 0.4958 0.0000 
675 0.5050 0.4950 0.0000 
676 0.5048 0.4952 0.0000 
677 0.5067 0.4933 0.0000 
678 0.5058 0.4942 0.0000 
679 0.5092 0.4908 0.0000 
680 0.5050 0.4950 0.0000 
681 0.5033 0.4967 0.0000 
682 0.5030 0.4970 0.0000 
683 0.5063 0.4937 0.0000 
684 0.5065 0.4935 0.0000 
685 0.5105 0.4895 0.0000 
686 0.5113 0.4887 0.0000 
687 0.5117 0.4883 0.0000 
688 0.5080 0.4920 0.0000 
689 0.5084 0.4916 0.0000 
690 0.5060 0.4940 0.0000 
691 0.5044 0.4956 0.0000 
692 0.5027 0.4973 0.0000 
693 0.5005 0.4995 0.0000 
694 0.4998 0.5002 0.0000 
695 0.5019 0.4981 0.0000 
696 0.5020 0.4980 0.0000 
697 0.4956 0.5044 0.0000 
698 0.4965 0.5035 0.0000 
699 0.4938 0.5062 0.0000 
700 0.4938 0.5062 0.0000 
701 0.4915 0.5085 0.0000 
702 0.4955 0.5045 0.0000 
703 0.4887 0.5113 0.0000 
704 0.4912 0.5088 0.0000 
705 0.4892 0.5108 0.0000 
706 0.4904 0.5096 0.0000 
707 0.4880 0.5120 0.0000 
708 0.4909 0.5091 0.0000 
709 0.4923 0.5077 0.0000 
710 0.4955 0.5045 0.0000 
711 0.4961 0.5039 0.0000 
712 0.4965 0.5035 0.0000 
713 0.5006 0.4994 0.0000 
714 0.4979 0.5021 0.0000 
715 0.4992 0.5008 0.0000 
716 0.4961 0.5039 0.0000 
717 0.4936 0.5064 0.0000 
718 0.5019 0.4981 0.0000 
719 0.5039 0.4961 0.0000 
720 0.5046 0.4954 0.0000 
721 0.5068 0.4932 0.0000 
722 0.5025 0.4975 0.0000 
723 0.5001 0.4999 0.0000 
724 0.5002 0.4998 0.0000 
725 0.5018 0.4982 0.0000 
726 0.4927 0.5073 0.0000 
727 0.4889 0.5111 0.0000 
728 0.4883 0.5117 0.0000 
729 0.4891 0.5109 0.0000 
730 0.4885 0.5115 0.0000 
731 0.4866 0.5134 0.0000 
732 0.4856 0.5144 0.0000 
733 0.4803 0.5197 0.0000 
734 0.4810 0.5190 0.0000 
735 0.4800 0.5200 0.0000 
736 0.4838 0.5162 0.0000 
737 0.4802 0.5198 0.0000 
738 0.4803 0.5197 0.0000 
739 0.4843 0.5157 0.0000 
740 0.4866 0.5134 0.0000 
741 0.4856 0.5144 0.0000 
742 0.4901 0.5099 0.0000 
743 0.4929 0.5071 0.0000 
744 0.4930 0.5070 0.0000 
745 0.4940 0.5060 0.0000 
746 0.4945 0.5055 0.0000 
747 0.4872 0.5128 0.0000 
748 0.4832 0.5168 0.0000 
749 0.4876 0.5124 0.0000 
750 0.4864 0.5136 0.0000 
751 0.4930 0.5070 0.0000 
752 0.4912 0.5088 0.0000 
753 0.4966 0.5034 0.0000 
754 0.4986 0.5014 0.0000 
755 0.4994 0.5006 0.0000 
756 0.4995 0.5005 0.0000 
757 0.4932 0.5068 0.0000 
758 0.4960 0.5040 0.0000 
759 0.5009 0.4991 0.0000 
760 0.5000 0.5000 0.0000 
761 0.5030 0.4970 0.0000 
762 0.5058 0.4942 0.0000 
763 0.5005 0.4995 0.0000 
764 0.5053 0.4947 0.0000 
765 0.5042 0.4958 0.0000 
766 0.5010 0.4990 0.0000 
767 0.4958 0.5042 0.0000 
768 0.4966 0.5034 0.0000 
769 0.4937 0.5063 0.0000 
770 0.4926 0.5074 0.0000 
771 0.4962 0.5038 0.0000 
772 0.4981 0.5019 0.0000 
773 0.4949 0.5051 0.0000 
774 0.4948 0.5052 0.0000 
775 0.4950 0.5050 0.0000 
776 0.4944 0.5056 0.0000 
777 0.4933 0.5067 0.0000 
778 0.4949 0.5051 0.0000 
779 0.4949 0.5051 0.0000 
780 0.4967 0.5033 0.0000 
781 0.4952 0.5048 0.0000 
782 0.4937 0.5063 0.0000 
783 0.4904 0.5096 0.0000 
784 0.4983 0.5017 0.0000 
785 0.4995 0.5005 0.0000 
786 0.4941 0.5059 0.0000 
787 0.4920 0.5080 0.0000 
788 0.4962 0.5038 0.0000 
789 0.4948 0.5052 0.0000 
790 0.4930 0.5070 0.0000 
791 0.4920 0.5080 0.0000 
792 0.4921 0.5079 0.0000 
793 0.4949 0.5051 0.0000 
794 0.4933 0.5067 0.0000 
795 0.4913 0.5087 0.0000 
796 0.4859 0.5141 0.0000 
797 0.4874 0.5126 0.0000 
798 0.4885 0.5115 0.0000 
799 0.4929 0.5071 0.0000 
800 0.4986 0.5014 0.0000 
801 0.5008 0.4992 0.0000 
802 0.4975 0.5025 0.0000 
803 0.4940 0.5060 0.0000 
804 0.4964 0.5036 0.0000 
805 0.4995 0.5005 0.0000 
806 0.5017 0.4983 0.0000 
807 0.5025 0.4975 0.0000 
808 0.5026 0.4974 0.0000 
809 0.4981 0.5019 0.0000 
810 0.4971 0.5029 0.0000 
811 0.4943 0.5057 0.0000 
812 0.4932 0.5068 0.0000 
813 0.4924 0.5076 0.0000 
814 0.4899 0.5101 0.0000 
815 0.4902 0.5098 0.0000 
816 0.4886 0.5114 0.0000 
817 0.4919 0.5081 0.0000 
818 0.4903 0.5097 0.0000 
819 0.4924 0.5076 0.0000 
820 0.4888 0.5112 0.0000 
821 0.4914 0.5086 0.0000 
822 0.4866 0.5134 0.0000 
823 0.4890 0.5110 0.0000 
824 0.4912 0.5088 0.0000 
825 0.4903 0.5097 0.0000 
826 0.4900 0.5100 0.0000 
827 0.4889 0.5111 0.0000 
828 0.4877 0.5123 0.0000 
829 0.4882 0.5118 0.0000 
830 0.4880 0.5120 0.0000 
831 0.4935 0.5065 0.0000 
832 0.4932 0.5068 0.0000 
833 0.4926 0.5074 0.0000 
834 0.4917 0.5083 0.0000 
835 0.4852 0.5148 0.0000 
836 0.4836 0.5164 0.0000 
837 0.4886 0.5114 0.0000 
838 0.4899 0.5101 0.0000 
839 0.4918 0.5082 0.0000 
840 0.4920 0.5080 0.0000 
841 0.4894 0.5106 0.0000 
842 0.4911 0.5089 0.0000 
843 0.4852 0.5148 0.0000 
844 0.4847 0.5153 0.0000 
845 0.4821 0.5179 0.0000 
846 0.4843 0.5157 0.0000 
847 0.4853 0.5147 0.0000 
848 0.4834 0.5166 0.0000 
849 0.4839 0.5161 0.0000 
850 0.4870 0.5130 0.0000 
851 0.4866 0.5134 0.0000 
852 0.4914 0.5086 0.0000 
853 0.4905 0.5095 0.0000 
854 0.4894 0.5106 0.0000 
855 0.4958 0.5042 0.0000 
856 0.4977 0.5023 0.0000 
857 0.4974 0.5026 0.0000 
858 0.4949 0.5051 0.0000 
859 0.4987 0.5013 0.0000 
860 0.4969 0.5031 0.0000 
861 0.4932 0.5068 0.0000 
862 0.4919 0.5081 0.0000 
863 0.4966 0.5034 0.0000 
864 0.4917 0.5083 0.0000 
865 0.4935 0.5065 0.0000 
866 0.4912 0.5088 0.0000 
867 0.4918 0.5082 0.0000 
868 0.4948 0.5052 0.0000 
869 0.4908 0.5092 0.0000 
870 0.4943 0.5057 0.0000 
871 0.4928 0.5072 0.0000 
872 0.4904 0.5096 0.0000 
873 0.4933 0.5067 0.0000 
874 0.4941 0.5059 0.0000 
875 0.4946 0.5054 0.0000 
876 0.4994 0.5006 0.0000 
877 0.4965 0.5035 0.0000 
878 0.5031 0.4969 0.0000 
879 0.5004 0.4996 0.0000 
880 0.5022 0.4978 0.0000 
881 0.4973 0.5027 0.0000 
882 0.4953 0.5047 0.0000 
883 0.4977 0.5023 0.0000 
884 0.4929 0.5071 0.0000 
885 0.4910 0.5090 0.0000 
886 0.4895 0.5105 0.0000 
887 0.4921 0.5079 0.0000 
888 0.4866 0.5134 0.0000 
889 0.4852 0.5148 0.0000 
890 0.4840 0.5160 0.0000 
891 0.4872 0.5128 0.0000 
892 0.4892 0.5108 0.0000 
893 0.4890 0.5110 0.0000 
894 0.4863 0.5137 0.0000 
895 0.4870 0.5130 0.0000 
896 0.4843 0.5157 0.0000 
897 0.4873 0.5127 0.0000 
898 0.4841 0.5159 0.0000 
899 0.4875 0.5125 0.0000 
900 0.4908 0.5092 0.0000 
901 0.4856 0.5144 0.0000 
902 0.4907 0.5093 0.0000 
903 0.4889 0.5111 0.0000 
904 0.4916 0.5084 0.0000 
905 0.4880 0.5120 0.0000 
906 0.4799 0.5201 0.0000 
907 0.4739 0.5261 0.0000 
908 0.4749 0.5251 0.0000 
909 0.4768 0.5232 0.0000 
910 0.4824 0.5176 0.0000 
911 0.4851 0.5149 0.0000 
912 0.4804 0.5196 0.0000 
913 0.4804 0.5196 0.0000 
914 0.4833 0.5167 0.0000 
915 0.4878 0.5122 0.0000 
916 0.4892 0.5108 0.0000 
917 0.4892 0.5108 0.0000 
918 0.4938 0.5062 0.0000 
919 0.4920 0.5080 0.0000 
920 0.4918 0.5082 0.0000 
921 0.4891 0.5109 0.0000 
922 0.4857 0.5143 0.0000 
923 0.4828 0.5172 0.0000 
924 0.4874 0.5126 0.0000 
925 0.4887 0.5113 0.0000 
926 0.4877 0.5123 0.0000 
927 0.4872 0.5128 0.0000 
928 0.4893 0.5107 0.0000 
929 0.4888 0.5112 0.0000 
930 0.4875 0.5125 0.0000 
931 0.4819 0.5181 0.0000 
932 0.4873 0.5127 0.0000 
933 0.4844 0.5156 0.0000 
934 0.4834 0.5166 0.0000 
935 0.4843 0.5157 0.0000 
936 0.4866 0.5134 0.0000 
937 0.4865 0.5135 0.0000 
938 0.4874 0.5126 0.0000 
939 0.4923 0.5077 0.0000 
940 0.4889 0.5111 0.0000 
941 0.4888 0.5112 0.0000 
942 0.4857 0.5143 0.0000 
943 0.4860 0.5140 0.0000 
944 0.4850 0.5150 0.0000 
945 0.4858 0.5142 0.0000 
946 0.4853 0.5147 0.0000 
947 0.4867 0.5133 0.0000 
948 0.4877 0.5123 0.0000 
949 0.4879 0.5121 0.0000 
950 0.4866 0.5134 0.0000 
951 0.4858 0.5142 0.0000 
952 0.4894 0.5106 0.0000 
953 0.4894 0.5106 0.0000 
954 0.4857 0.5143 0.0000 
955 0.4852 0.5148 0.0000 
956 0.4839 0.5161 0.0000 
957 0.4833 0.5167 0.0000 
958 0.4834 0.5166 0.0000 
959 0.4818 0.5182 0.0000 
960 0.4816 0.5184 0.0000 
961 0.4850 0.5150 0.0000 
962 0.4825 0.5175 0.0000 
963 0.4814 0.5186 0.0000 
964 0.4814 0.5186 0.0000 
965 0.4792 0.5208 0.0000 
966 0.4790 0.5210 0.0000 
967 0.4761 0.5239 0.0000 
968 0.4789 0.5211 0.0000 
969 0.4749 0.5251 0.0000 
970 0.4752 0.5248 0.0000 
971 0.4783 0.5217 0.0000 
972 0.4757 0.5243 0.0000 
973 0.4742 0.5258 0.0000 
974 0.4737 0.5263 0.0000 
975 0.4768 0.5232 0.0000 
976 0.4793 0.5207 0.0000 
977 0.4815 0.5185 0.0000 
978 0.4829 0.5171 0.0000 
979 0.4840 0.5160 0.0000 
980 0.4811 0.5189 0.0000 
981 0.4752 0.5248 0.0000 
982 0.4771 0.5229 0.0000 
983 0.4788 0.5212 0.0000 
984 0.4819 0.5181 0.0000 
985 0.4783 0.5217 0.0000 
986 0.4804 0.5196 0.0000 
987 0.4799 0.5201 0.0000 
988 0.4817 0.5183 0.0000 
989 0.4860 0.5140 0.0000 
990 0.4937 0.5063 0.0000 
991 0.4907 0.5093 0.0000 
992 0.4918 0.5082 0.0000 
993 0.4918 0.5082 0.0000 
994 0.4991 0.5009 0.0000 
995 0.4998 0.5002 0.0000 
996 0.5004 0.4996 0.0000 
997 0.4974 0.5026 0.0000 
998 0.4988 0.5012 0.0000 
999 0.4935 0.5065 0.0000 
